Energy,Neutrino Flux Best Fit,Neutrino Flux Min,Neutrino Flux Max
6142131979.695432,1.2417209076524867e-31,1.2417209076524867e-31,1.587589493231628e-22
6788105638.941796,1.5165086672480095e-31,1.5165086672480095e-31,1.9389205328824492e-22
7502016940.983785,1.8520834932038008e-31,1.8520834932038008e-31,2.367972690646793e-22
8291010950.086111,2.2618831610545862e-31,2.2618831610545862e-31,2.891927863399324e-22
9162984183.481915,2.7623121485509886e-31,2.7623121485509886e-31,3.5317615116695833e-22
10126663642.371346,3.373394921674133e-31,3.373394921674133e-31,4.313078135499955e-22
11191694154.682823,4.11957233791382e-31,4.11957233791382e-31,5.267129828069149e-22
12368734903.752674,5.030672189953031e-31,5.030672189953031e-31,6.4320576134410605e-22
13669566109.01465,6.143091489455638e-31,6.143091489455638e-31,7.85440370161124e-22
15107206926.39548,7.501235994484033e-31,7.501235994484033e-31,9.590952925920388e-22
16696045748.403273,9.159271952757582e-31,9.159271952757582e-31,1.1710973772198725e-21
18451984207.99586,1.1183256332677821e-30,1.1183256332677821e-30,1.4298943911110256e-21
20392596327.46814,1.3653725236163924e-30,1.3653725236163924e-30,1.7457862384892038e-21
22537304405.17404,1.666883604072159e-30,1.666883604072159e-30,2.131327098227638e-21
24907573400.416534,2.0348177415200334e-30,2.0348177415200334e-30,2.6018131274914053e-21
27527125761.974915,2.483738298772671e-30,2.483738298772671e-30,3.1758731680791926e-21
30422178850.34563,3.0313701018794104e-30,3.0313701018794104e-30,3.876182071970738e-21
33621707329.898037,3.699262055912353e-30,3.699262055912353e-30,4.7303099443924386e-21
37157733157.05414,4.5136109545633854e-30,4.5136109545633854e-30,5.771777428980176e-21
41065646066.79146,5.506225454448633e-30,5.506225454448633e-30,7.041292008797155e-21
45384557765.005516,6.715701439807585e-30,6.715701439807585e-30,8.588255463210114e-21
50157693371.60842,8.188801167701598e-30,8.188801167701598e-30,1.04725346843224e-20
55432824032.0573,9.98212133342713e-30,9.98212133342713e-30,1.2766604053390707e-20
61262745027.0346,1.2164034193984469e-29,1.2164034193984469e-29,1.5558042065531265e-20
67705804165.362144,1.48166853811549e-29,1.48166853811549e-29,1.8952116047294637e-20
74826485748.48326,1.8036657533268494e-29,1.8036657533268494e-29,2.3072726530847743e-20
82696055951.02562,2.1937279668226723e-29,2.1937279668226723e-29,2.806542663770939e-20
91393276076.63011,2.66514498210741e-29,2.66514498210741e-29,3.410111023996894e-20
101005190827.55045,3.233461693821422e-29,3.233461693821422e-29,4.137993726242199e-20
111627999477.28992,3.916981594083211e-29,3.916981594083211e-29,5.0137859011920355e-20
123368018665.26436,4.7371789713046944e-29,4.7371789713046944e-29,6.065206349565644e-20
136342746449.46387,5.719442107847673e-29,5.719442107847673e-29,7.325060673422539e-20
150682038266.50922,6.893685185361524e-29,6.893685185361524e-29,8.832049166982802e-20
166529406568.50787,8.295197201114036e-29,8.295197201114036e-29,1.0631879398576e-19
184043457143.91068,9.965679680349225e-29,9.965679680349225e-29,1.277862577916886e-19
203399476497.55176,1.1954597436634593e-28,1.1954597436634593e-28,1.5336492951186116e-19
224791186176.90543,1.431807920725844e-28,1.431807920725844e-28,1.837854555523152e-19
248432681602.44443,1.7110663105206536e-28,1.7110663105206536e-28,2.1976548558072083e-19
274560574806.5686,2.042576865621916e-28,2.042576865621916e-28,2.6251506814216706e-19
303436362526.35297,2.433909135619023e-28,2.433909135619023e-28,3.13033437868273e-19
335349043350.7844,2.8980102006672073e-28,2.8980102006672073e-28,3.730017327201804e-19
370618010115.7768,3.445453752731178e-28,3.445453752731178e-28,4.438197390675594e-19
409596246495.0225,4.0939452750158e-28,4.0939452750158e-28,5.277935942291392e-19
452673859779.24316,4.858115388111227e-28,4.858115388111227e-28,6.268668001939531e-19
500281985201.07336,5.763041959605287e-28,5.763041959605287e-28,7.443109391329789e-19
552897100881.3777,6.828568354806626e-28,6.828568354806626e-28,8.827745320833913e-19
611045796582.4364,8.0897629724471e-28,8.0897629724471e-28,1.0468423128492296e-18
675310043995.2765,9.574192629347684e-28,9.574192629347684e-28,1.2402053519540057e-18
746333021307.9661,1.132744038968282e-27,1.132744038968282e-27,1.4688580868014242e-18
824825550349.0964,1.3387196269905836e-27,1.3387196269905836e-27,1.737868501054324e-18
911573210731.5619,1.5817648494062954e-27,1.5817648494062954e-27,2.0556929012450352e-18
1007444202197.3667,1.8669937090475573e-27,1.8669937090475573e-27,2.4292408395689523e-18
1113398033852.4517,2.202890072914273e-27,2.202890072914273e-27,2.8697493430238473e-18
1230495127256.3357,2.5961634893199346e-27,2.5961634893199346e-27,3.3863525276906803e-18
1359907429477.4949,3.0582494804739734e-27,3.0582494804739734e-27,3.994263157183937e-18
1502930142333.5364,3.598001396369132e-27,3.598001396369132e-27,4.705621824830811e-18
1660994685206.319,4.2307926431199856e-27,4.2307926431199856e-27,5.540973877107487e-18
1835683021168.2385,4.968279403670763e-27,4.968279403670763e-27,6.516424686823171e-18
2028743489800.3816,5.830938363069328e-27,5.830938363069328e-27,7.659484400199092e-18
2242108305162.68,6.834105230994739e-27,6.834105230994739e-27,8.991504091101598e-18
2477912894041.6724,8.005169322481055e-27,8.005169322481055e-27,1.0549464553187226e-17
2738517268019.522,9.364376800203336e-27,9.364376800203336e-27,1.2361752815793547e-17
3026529643263.148,1.0947939722906125e-26,1.0947939722906125e-26,1.4477549520744234e-17
3344832544428.298,1.278093825217425e-26,1.278093825217425e-26,1.693252863260764e-17
3696611653935.1245,1.4909491969201173e-26,1.4909491969201173e-26,1.9789903683320933e-17
4085387695348.618,1.73649972792063e-26,1.73649972792063e-26,2.3094938977787747e-17
4515051669963.389,2.0206709714197506e-26,2.0206709714197506e-26,2.6929557266570185e-17
4989903799252.424,2.347302688567288e-26,2.347302688567288e-26,3.135006187344987e-17
5514696562928.966,2.7239333314209684e-26,2.7239333314209684e-26,3.646169691217856e-17
6094682263360.821,3.155177378993213e-26,3.155177378993213e-26,4.2333491947526327e-17
6735665592377.842,3.65057576937988e-26,3.65057576937988e-26,4.91000432115902e-17
7444061726578.775,4.215597420050971e-26,4.215597420050971e-26,5.684503846888765e-17
8226960532574.853,4.8622464617158526e-26,4.8622464617158526e-26,6.573971438043494e-17
9092197524757.873,5.596846827363004e-26,5.596846827363004e-26,7.588354589733053e-17
10048432285761.785,6.434371901926246e-26,6.434371901926246e-26,8.749272229354043e-17
11105235134476.328,7.381784363002156e-26,7.381784363002156e-26,1.0068108455538675e-16
12273182909015.148,8.457369010547896e-26,8.457369010547896e-26,1.157165961440178e-16
13563964823266.613,9.668502427753903e-26,9.668502427753903e-26,1.3272599306700067e-16
14990499456475.36,1.1037682700511222e-25,1.1037682700511222e-25,1.5204344022016482e-16
16567064046725.365,1.2572457456281882e-25,1.2572457456281882e-25,1.7380673969648742e-16
18309437382337.52,1.430047657941113e-25,1.430047657941113e-25,1.9843184837080269e-16
20235057721286.53,1.622908397695252e-25,1.622908397695252e-25,2.260636845315242e-16
22363197319147.99,1.8392413556230846e-25,1.8392413556230846e-25,2.572212296480611e-16
24715155312309.637,2.0797195863184795e-25,2.0797195863184795e-25,2.920510824234335e-16
27314470886887.453,2.3485852013770052e-25,2.3485852013770052e-25,3.3120306031119387e-16
30187158866811.94,2.6464032684829626e-25,2.6464032684829626e-25,3.7481735161034913e-16
33361970078929.97,2.9785472819559116e-25,2.9785472819559116e-25,4.2371826888342973e-16
36870679100943.375,3.3454851604764196e-25,3.3454851604764196e-25,4.780353825765238e-16
40748402272062.164,3.7540017047426884e-25,3.7540017047426884e-25,5.388087632680054e-16
45033949149130.734,4.204343169674612e-25,4.204343169674612e-25,6.061311551733686e-16
49770210925716.83,4.705117761626936e-25,4.705117761626936e-25,6.813163055044218e-16
55004589701593.07,5.256243696045519e-25,5.256243696045519e-25,7.643885133201697e-16
60789472898884.02,5.868665128693944e-25,5.868665128693944e-25,8.570056447458786e-16
67182757572994.33,6.541791841005671e-25,6.541791841005671e-25,9.590718730192634e-16
74248429865799.78,7.289478643926276e-25,7.289478643926276e-25,1.0726674578222728e-15
82057205400461.25,8.110314074047338e-25,8.110314074047338e-25,1.1974937048198362e-15
90687237027149.88,9.021720196729834e-25,9.021720196729834e-25,1.3361425508517503e-15
100224897003039.06,1.0020987574816523e-24,1.0020987574816523e-24,1.4879908048290276e-15
110765641434885.86,1.1129801679621973e-24,1.1129801679621973e-24,1.6562390539171064e-15
122414965635830.77,1.2343273669488638e-24,1.2343273669488638e-24,1.8397457656849923e-15
135289459957949.89,1.3687878103240563e-24,1.3687878103240563e-24,2.042402696076091e-15
149517976667686.25,1.5154929965687124e-24,1.5154929965687124e-24,2.2622411817360052e-15
165242919542640.03,1.6775830843515862e-24,1.6775830843515862e-24,2.5038921317413337e-15
182621669096439.78,1.8535226371267354e-24,1.8535226371267354e-24,2.7640731302366975e-15
201828157695819.44,2.0468913160381427e-24,2.0468913160381427e-24,3.0481430776165058e-15
223054610334205.25,2.2549995142102573e-24,2.2549995142102573e-24,3.350756469207049e-15
246513468484059.8,2.481734361994221e-24,2.481734361994221e-24,3.677928686812355e-15
272439516282540.53,2.722478697188575e-24,2.722478697188575e-24,4.021146443740163e-15
301092230330060.5,2.9812576614752912e-24,2.9812576614752912e-24,4.387014809213484e-15
332758376619317.2,3.2503866881652336e-24,3.2503866881652336e-24,4.762314570470097e-15
367754880585732.8,3.533977932915333e-24,3.533977932915333e-24,5.1543792956932234e-15
406431999003735.06,3.81974417318579e-24,3.81974417318579e-24,5.5433030186554065e-15
449176825474278.44,4.1123029795358644e-24,4.1123029795358644e-24,5.9379194851728246e-15
496417164587713.0,4.392923037753877e-24,4.392923037753877e-24,6.309350960695844e-15
548625813535912.5,4.6682004977367145e-24,4.6682004977367145e-24,6.6700283312506825e-15
606325294025483.2,4.911065714834222e-24,4.911065714834222e-24,6.979851242408965e-15
670093081850631.2,5.133312828885124e-24,5.133312828885124e-24,7.259062448867622e-15
740567386465002.0,5.2979569043913304e-24,5.2979569043913304e-24,7.454596160838892e-15
818453538396408.9,5.427312744815974e-24,5.427312744815974e-24,7.601189519124304e-15
904531048431821.2,5.473534370144066e-24,5.473534370144066e-24,7.631965110581775e-15
999661409223323.6,5.476188166718045e-24,5.476188166718045e-24,7.604342902256197e-15
1104796717396137.8,5.376369430596385e-24,5.376369430596385e-24,7.437806608199007e-15
1220989202451651.0,5.236703014726713e-24,5.236703014726713e-24,7.21919471281491e-15
1349401757833943.5,4.9878508741588604e-24,4.9878508741588604e-24,6.8555875786658866e-15
1491319579558231.5,4.716813965467874e-24,4.716813965467874e-24,6.464123779683311e-15
1648163028884559.0,4.3458778985866465e-24,4.3458778985866465e-24,5.9424582809876115e-15
1821501847770690.5,3.9802763724949815e-24,3.9802763724949815e-24,5.429515510742118e-15
2013070869377222.2,3.5386858778869475e-24,3.5386858778869475e-24,4.819739021889216e-15
2224787380860966.0,3.1310014113094502e-24,3.1310014113094502e-24,4.2562155570988705e-15
2458770312229228.0,2.6803309365383138e-24,2.6803309365383138e-24,3.6402388366237475e-15
2717361443303522.0,2.2843047127030285e-24,2.2843047127030285e-24,3.0976247572738406e-15
3003148841039124.5,1.8795028541347068e-24,1.8795028541347068e-24,2.5475674459308836e-15
3318992761769025.0,1.537617969611075e-24,1.537617969611075e-24,2.081681470712986e-15
3668054277610701.5,1.2141158604046586e-24,1.2141158604046586e-24,1.6434180692180678e-15
4053826913538324.0,9.500666980894853e-25,9.500666980894853e-25,1.2847953882646458e-15
4480171611754916.5,7.187874173090828e-25,7.187874173090828e-25,9.718393421721395e-16
4951355373299643.0,5.361234424806179e-25,5.361234424806179e-25,7.242491777064666e-16
5472093963628355.0,3.8764446382470356e-25,3.8764446382470356e-25,5.234031250899651e-16
6047599109579356.0,2.7462692992195473e-25,2.7462692992195473e-25,3.7042955905849103e-16
6683630660087285.0,1.8899805852989367e-25,1.8899805852989367e-25,2.546528340510525e-16
7386554232687208.0,1.2671719060629884e-25,1.2671719060629884e-25,1.7047795382672223e-16
8163404922754493.0,8.257285114669077e-26,8.257285114669077e-26,1.1087174214356089e-16
9021957713103842.0,5.216180373417552e-26,5.216180373417552e-26,6.986891494428672e-17
9970805288630640.0,3.195633056388795e-26,3.195633056388795e-26,4.2672570458862194e-17
1.1019444034789442e+16,1.8859279330107398e-26,1.8859279330107398e-26,2.5094736684649832e-17
1.2178369080611464e+16,1.072078301973162e-26,1.072078301973162e-26,1.4206792702038114e-17
1.3459179337483472e+16,5.811026905669857e-27,5.811026905669857e-27,7.667328370296106e-18
1.487469358495139e+16,2.996798298780252e-27,2.996798298780252e-27,3.936210619703321e-18
1.6439078765374668e+16,1.4530952129820197e-27,1.4530952129820197e-27,1.900265469248056e-18
1.8167991771447e+16,6.598312609508058e-28,6.598312609508058e-28,8.593051792484322e-19
2.0078736145640884e+16,2.7723355017467562e-28,2.7723355017467562e-28,3.5971895742717974e-19
2.2190435259876656e+16,1.0730245233762665e-28,1.0730245233762665e-28,1.3879133491874078e-19
2.45242237086561e+16,3.77933787243621e-29,3.77933787243621e-29,4.876628775446538e-20
2.7103458831188016e+16,1.207652230865092e-29,1.207652230865092e-29,1.555686850033195e-20
2.995395447948957e+16,3.45697677198173e-30,3.45697677198173e-30,4.450116705955334e-21
3.3104239372093628e+16,8.868146133398932e-31,8.868146133398932e-31,1.141804741712569e-21
3.6585842619052776e+16,2.018381583831807e-31,2.018381583831807e-31,2.602005929877581e-22
4.04336092758697e+16,4.101117491534773e-32,4.101117491534773e-32,5.297107164529651e-23
4.468604908452491e+16,7.436457573138194e-33,7.436457573138194e-33,9.62602709297018e-24
4.938572189191783e+16,1.2165032113817292e-33,1.2165032113817292e-33,1.5766830233358372e-24
5.4579663603119416e+16,1.8034289565295453e-34,1.8034289565295453e-34,2.3357895417700266e-25
6.031985693251959e+16,2.4094923274988985e-35,2.4094923274988985e-35,3.110894292068291e-26
6.666375166430425e+16,2.8499564096741142e-36,2.8499564096741142e-36,3.660690399554117e-27
7.36748396292062e+16,2.8808817599238563e-37,2.8808817599238563e-37,3.6787870711472334e-28
8.142329015208605e+16,2.4045590432307377e-38,2.4045590432307377e-38,3.0535361045595343e-29
8.998665233012059e+16,1.5888780939418344e-39,1.5888780939418344e-39,2.0085094653709953e-30
9.945063117023363e+16,8.038510237974047e-41,8.038510237974047e-41,1.012631237468658e-31
1.0990994535360949e+17,2.9844349501521846e-42,2.9844349501521846e-42,3.75047262503373e-33
1.2146927521209302e+17,7.856201575347274e-44,7.856201575347274e-44,9.8571131857885e-35
1.3424431040413254e+17,1.399043749927616e-45,1.399043749927616e-45,1.7537501780322735e-36
1.4836290777576707e+17,1.6198520346697085e-47,1.6198520346697085e-47,2.0296720156871428e-38
1.6396637099491738e+17,1.155072793516224e-49,1.155072793516224e-49,1.4472031456963097e-40
1.8121086476598467e+17,4.835792132273569e-52,4.835792132273569e-52,6.060083883831109e-43
2.002689777787056e+17,1.1155941430320637e-54,1.1155941430320637e-54,1.3985877270699337e-45
2.2133145003376384e+17,1.3377066854440853e-57,1.3377066854440853e-57,1.6779862516350775e-48
2.446090818328286e+17,7.73502869514106e-61,7.73502869514106e-61,9.70905178852103e-52
2.703348435388288e+17,2.007390812888055e-64,2.007390812888055e-64,2.5216420513034113e-55
2.987662072216433e+17,2.1378029226301486e-68,2.1378029226301486e-68,2.6877142390486047e-59
3.301877235251232e+17,8.55105270156728e-73,8.55105270156728e-73,1.0760755108883608e-63
3.649138695455691e+17,1.1533257832502428e-77,1.1533257832502428e-77,1.452801542941628e-68
4.032921962242128e+17,4.702445545693189e-83,4.702445545693189e-83,5.930017064045883e-74
4.457068067538581e+17,5.0872661571846146e-89,5.0872661571846146e-89,6.422716418390976e-80
4.925822008127256e+17,1.2763719198843066e-95,1.2763719198843066e-95,1.6134904155274156e-86
5.443875230999237e+17,6.340240905849098e-103,6.340240905849098e-103,8.025573621154915e-94
6.016412586932714e+17,5.284060167120289e-111,5.284060167120289e-111,6.698523625200053e-102
6.649164222222295e+17,6.097159361180522e-120,6.097159361180522e-120,7.741201588463369e-111
7.348462927909175e+17,7.948417051031154e-130,7.948417051031154e-130,1.010877499920435e-120
8.121307520482227e+17,9.267693990379764e-141,9.267693990379764e-141,1.1807480725050246e-131
8.975432888386016e+17,7.531503072819628e-153,7.531503072819628e-153,9.614146688404498e-144
9.919387405383949e+17,3.2101979936474884e-166,3.2101979936474884e-166,4.106171259261044e-157
1.0962618485556172e+18,5.286570767495224e-181,5.286570767495224e-181,6.777041353214659e-172
1.2115567136195197e+18,2.3791275098818942e-197,2.3791275098818942e-197,3.0568851793964995e-188
1.3389772454916012e+18,2.0122937608207236e-215,2.0122937608207236e-215,2.5920428640487523e-206
1.4797987116823514e+18,2.0976018783305145e-235,2.0976018783305145e-235,2.708939872556243e-226
1.6354305007571471e+18,1.704227679357866e-257,1.704227679357866e-257,2.2071575778733088e-248
1.8074302279706885e+18,6.45151711346856e-282,6.45151711346856e-282,8.37981469715757e-273
1.997519324404046e+18,6.496448060321727e-309,6.496448060321727e-309,8.46505107488559e-300
2.2076002656254697e+18,0.0,0.0,0.0
2.439775612305339e+18,0.0,0.0,0.0
2.696369053350071e+18,0.0,0.0,0.0
2.9799486621616563e+18,0.0,0.0,0.0
3.2933525987795e+18,0.0,0.0,0.0
3.6397175151399654e+18,0.0,0.0,0.0
4.0225099477432417e+18,0.0,0.0,0.0
4.4455610119158303e+18,0.0,0.0,0.0
4.913104744900312e+18,0.0,0.0,0.0
5.429820481523306e+18,0.0,0.0,0.0
6.000879686551076e+18,0.0,0.0,0.0
