Energy,Neutrino Flux Best Fit,Neutrino Flux Min,Neutrino Flux Max
3316279069.767442,6.952232409520495e-31,6.952232409520495e-31,1.2673913024841184e-21
3665055184.129939,8.490837062998363e-31,8.490837062998363e-31,1.5478859391577137e-21
4050512402.6427965,1.036984487447379e-30,1.036984487447379e-30,1.890440429003925e-21
4476508510.705537,1.2664523263471581e-30,1.2664523263471581e-30,2.3087781154327252e-21
4947307020.549888,1.5466763737942205e-30,1.5466763737942205e-30,2.8196538417695825e-21
5467619841.903216,1.8888745642646622e-30,1.8888745642646622e-30,3.443522254712637e-21
6042654440.364805,2.306740385878077e-30,2.306740385878077e-30,4.2053528418871104e-21
6678165955.471861,2.8169875315154882e-30,2.8169875315154882e-30,5.1356236561315905e-21
7380514800.070371,3.440013650704035e-30,3.440013650704035e-30,6.271532518609037e-21
8156730317.464677,4.200708921323973e-30,4.200708921323973e-30,7.658472743055188e-21
9014581133.447905,5.129440568502853e-30,5.129440568502853e-30,9.351830351552689e-21
9962652907.320034,6.2632509385469506e-30,6.2632509385469506e-30,1.1419171665040629e-20
11010434260.051903,7.647314471915107e-30,7.647314471915107e-30,1.3942904396952964e-20
12168411739.593124,9.33670811288223e-30,9.33670811288223e-30,1.7023512342490586e-20
13448174773.768623,1.1398560560339575e-29,1.1398560560339575e-29,2.0783483858664188e-20
14862531661.16763,1.3914658525501361e-29,1.3914658525501361e-29,2.5372078012165025e-20
16425637760.90101,1.6984599347793635e-29,1.6984599347793635e-29,3.0971093746602297e-20
18153137164.192997,2.072956104269132e-29,2.072956104269132e-29,3.780177963743498e-20
20062319265.70433,2.5296967325748117e-29,2.5296967325748117e-29,4.613337463580237e-20
22172291801.60521,3.0865991804354223e-29,3.0865991804354223e-29,5.62932110141278e-20
24504172086.221184,3.7654269522723054e-29,3.7654269522723054e-29,6.86790341806506e-20
27081298361.212727,4.5925826563397076e-29,4.5925826563397076e-29,8.377359398782055e-20
29929463372.542,5.60006891774542e-29,5.60006891774542e-29,1.0216233649989429e-19
33077172512.943714,6.826615773875492e-29,6.826615773875492e-29,1.2455422377680625e-19
36555929113.476585,8.318892004954068e-29,8.318892004954068e-29,1.518043595847505e-19
40400549739.449196,1.0132192406247822e-28,1.0132192406247822e-28,1.8492821674223139e-19
44649512646.30794,1.2331930924439189e-28,1.2331930924439189e-28,2.2513005214737936e-19
49345342882.95039,1.4995419098506933e-28,1.4995419098506933e-28,2.738367789412435e-19
54535037896.70792,1.8213850790936776e-28,1.8213850790936776e-28,3.3273618430839827e-19
60270537899.594925,2.209527694302626e-28,2.209527694302626e-28,4.0383280279246884e-19
66609245703.40842,2.676735943525875e-28,2.676735943525875e-28,4.895013062481697e-19
73614601226.36227,3.238173102440643e-28,3.238173102440643e-28,5.925684061339035e-19
81356716421.1115,3.9117995835207156e-28,3.9117995835207156e-28,7.16390467017216e-19
89913076978.73991,4.718902528059592e-28,4.718902528059592e-28,8.649550446940849e-19
99369317831.60037,5.684734588705452e-28,5.684734588705452e-28,1.0430034224379387e-18
109820080216.50056,6.839327953882996e-28,6.839327953882996e-28,1.2561857271989706e-18
121369958876.0112,8.21726175897529e-28,8.21726175897529e-28,1.5110427725359975e-18
134134548877.80492,9.85432224111159e-28,9.85432224111159e-28,1.8144668705982683e-18
148241602528.9465,1.180569149248699e-27,1.180569149248699e-27,2.176806937720729e-18
163832307963.92105,1.412116329890451e-27,1.412116329890451e-27,2.6077126916127686e-18
181062702202.9388,1.687794640900614e-27,1.687794640900614e-27,3.121733736578643e-18
200105232822.87958,2.0145537110207285e-27,2.0145537110207285e-27,3.732414348279956e-18
221150483870.60297,2.4030822646555582e-27,2.4030822646555582e-27,4.460015629714673e-18
244409083292.14792,2.8630092705285253e-27,2.8630092705285253e-27,5.323424678465595e-18
270113810968.01065,3.4095032857063495e-27,3.4095032857063495e-27,6.351482490657117e-18
298521928452.42816,4.055716660107825e-27,4.055716660107825e-27,7.57020068586017e-18
329917753733.48303,4.822974460139096e-27,4.822974460139096e-27,9.02028432594196e-18
364615506783.08875,5.72951226970874e-27,5.72951226970874e-27,1.0738007639290345e-17
402962454376.0839,6.803778218624284e-27,6.803778218624284e-27,1.2778216303006281e-17
445342385652.83276,8.070779858250298e-27,8.070779858250298e-27,1.5191007623062157e-17
492179453209.9401,9.570636134497067e-27,9.570636134497067e-27,1.8053962906310125e-17
543942418162.0001,1.1337454691930453e-26,1.1337454691930453e-26,2.1435923146423118e-17
601149341660.3853,1.3425350757450922e-26,1.3425350757450922e-26,2.5442427200285775e-17
664372769823.3795,1.5879814329569667e-26,1.5879814329569667e-26,3.0166282667540605e-17
734245463970.1649,1.8774744255995574e-26,1.8774744255995574e-26,3.5752577154819095e-17
811466733508.7867,2.2171000905171865e-26,2.2171000905171865e-26,4.2326697812194235e-17
896809434859.7532,2.616917068414369e-26,2.616917068414369e-26,5.0087482898227703e-17
991127706462.8558,3.0850504468889294e-26,3.0850504468889294e-26,5.920393262583348e-17
1095365517281.766,3.6350815326111005e-26,3.6350815326111005e-26,6.994658802595677e-17
1210566114362.6956,4.277839993114998e-26,4.277839993114998e-26,8.25427434186556e-17
1337882464001.4893,5.031673405551277e-26,5.031673405551277e-26,9.73605152731953e-17
1478588791017.8362,5.911019185328991e-26,5.911019185328991e-26,1.1470532637373221e-16
1634093331625.5432,6.940417775445542e-26,6.940417775445542e-26,1.3507362628384086e-16
1805952427533.8965,8.138333861424065e-26,8.138333861424065e-26,1.5886205524351304e-16
1995886102338.5798,9.536729887741047e-26,9.536729887741047e-26,1.8672517885989834e-16
2205795276095.9536,1.115927358340063e-25,1.115927358340063e-25,2.191784380125126e-16
2437780790369.893,1.3047704982900577e-25,1.3047704982900577e-25,2.5708639243732373e-16
2694164434160.272,1.5231791952445492e-25,1.5231791952445492e-25,3.011081762087711e-16
2977512181147.667,1.7765545228006534e-25,1.7765545228006534e-25,3.523764930249861e-16
3290659870820.3896,2.068577421730359e-25,2.068577421730359e-25,4.1172200937436265e-16
3636741590509.2603,2.406191339969341e-25,2.406191339969341e-25,4.806198321342864e-16
4019221042387.013,2.7938711406801883e-25,2.7938711406801883e-25,5.6010142938647685e-16
4441926209363.814,3.2404777724908834e-25,3.2404777724908834e-25,6.520747892600388e-16
4909087666826.892,3.7513136526397105e-25,3.7513136526397105e-25,7.577936828083029e-16
5425380923660.912,4.337580141378873e-25,4.337580141378873e-25,8.797048630704316e-16
5995973216312.434,5.005298471982758e-25,5.005298471982758e-25,1.0192823681510418e-15
6626575224229.01,5.768383080536021e-25,5.768383080536021e-25,1.1796176135955044e-15
7323498224258.513,6.633373533669345e-25,6.633373533669345e-25,1.3623854908071497e-15
8093717256029.159,7.617524333607689e-25,7.617524333607689e-25,1.5714804231547092e-15
8944940930490.455,8.727540354924412e-25,8.727540354924412e-25,1.808726919386112e-15
9885688580282.57,9.984654601105674e-25,9.984654601105674e-25,2.078992812439855e-15
10925375524080.83,1.1395099441715262e-24,1.1395099441715262e-24,2.384140018347839e-15
12074407298269.637,1.2984863428518163e-24,1.2984863428518163e-24,2.7302136632702355e-15
13344283799047.951,1.475870966931611e-24,1.475870966931611e-24,3.1189168753952414e-15
14747714377255.809,1.674829262613211e-24,1.674829262613211e-24,3.557707649750117e-15
16298745037829.225,1.895538230697067e-24,1.895538230697067e-24,4.04780640482995e-15
18012899016938.62,2.141861984211543e-24,2.141861984211543e-24,4.598396255720806e-15
19907332143754.02,2.4134800214780415e-24,2.4134800214780415e-24,5.209753499511336e-15
22001004541749.47,2.7150582191802986e-24,2.7150582191802986e-24,5.89305444084971e-15
24314870387991.746,3.0454240214246993e-24,3.0454240214246993e-24,6.6468170083694844e-15
26872087629587.207,3.410178631133435e-24,3.410178631133435e-24,7.484532387838379e-15
29698249756200.133,3.806821961468561e-24,3.806821961468561e-24,8.401816532740249e-15
32821641948299.633,4.242036805097268e-24,4.242036805097268e-24,9.414820201232511e-15
36273524164752.48,4.711329815086207e-24,4.711329815086207e-24,1.0514624336329245e-14
40088444002998.664,5.222613658113428e-24,5.222613658113428e-24,1.1720393668416603e-14
44304582463018.22,5.768503209451397e-24,5.768503209451397e-24,1.3016433086587704e-14
48964136075612.15,6.35832926817092e-24,6.35832926817092e-24,1.442536509699497e-14
54113739219465.195,6.980686225720463e-24,6.980686225720463e-24,1.5921830286899158e-14
59804930853682.51,7.64660467023161e-24,7.64660467023161e-24,1.753256681816082e-14
66094670337014.9,8.339275853801972e-24,8.339275853801972e-24,1.9218946490429047e-14
73045907496266.0,9.071847829680038e-24,9.071847829680038e-24,2.101283038398832e-14
80728212649317.23,9.820514606319103e-24,9.820514606319103e-24,2.285807621203274e-14
89218472888252.02,1.0601207802948782e-23,1.0601207802948782e-23,2.4793316290645028e-14
98601661591216.72,1.1381427725795615e-23,1.1381427725795615e-23,2.674025262583291e-14
108971688864549.28,1.2180937841277755e-23,1.2180937841277755e-23,2.874694795410722e-14
120432341426687.69,1.2956930003179622e-23,1.2956930003179622e-23,3.0708362556088506e-14
133098321340532.48,1.3734579862091285e-23,1.3734579862091285e-23,3.2686083060987823e-14
147096393990243.8,1.4459499112835133e-23,1.4459499112835133e-23,3.454447275124637e-14
162566656791814.84,1.5164475266435527e-23,1.5164475266435527e-23,3.636446061189548e-14
179663941335098.66,1.5782876962742446e-23,1.5782876962742446e-23,3.797744739949803e-14
198559362990400.22,1.6357828813936953e-23,1.6357828813936953e-23,3.949110764135544e-14
219442033488616.7,1.6810604764980662e-23,1.6810604764980662e-23,4.070368395409874e-14
242520953615001.47,1.7197571085429958e-23,1.7197571085429958e-23,4.175776725078762e-14
268027104959272.6,1.7428995830094896e-23,1.7428995830094896e-23,4.2420939029669714e-14
296215761656997.1,1.7577001244556294e-23,1.7577001244556294e-23,4.2878107000230735e-14
327369045258940.6,1.754298619599261e-23,1.754298619599261e-23,4.28717820208121e-14
361798748298372.2,1.7416275710228063e-23,1.7416275710228063e-23,4.26337516431865e-14
399849454815532.0,1.7092693461366018e-23,1.7092693461366018e-23,4.18904169315649e-14
441901989070528.5,1.667846239680004e-23,1.667846239680004e-23,4.091988368196071e-14
488377226960530.6,1.6068268597049412e-23,1.6068268597049412e-23,3.9444652264309805e-14
539740308287208.4,1.5382568591716087e-23,1.5382568591716087e-23,3.7781402129595203e-14
596505292032208.0,1.452017546529359e-23,1.452017546529359e-23,3.566327212348363e-14
659240301232217.4,1.3610260803600267e-23,1.3610260803600267e-23,3.3429291622820267e-14
728573208945276.0,1.2561026568736882e-23,1.2561026568736882e-23,3.083795896782823e-14
805197922215371.0,1.1501975154102935e-23,1.1501975154102935e-23,2.8226567394209256e-14
889881326927365.2,1.035492350051706e-23,1.035492350051706e-23,2.539105580224957e-14
983470963058693.0,9.23944715876469e-24,9.23944715876469e-24,2.263872245186571e-14
1086903507144316.9,8.093375248540835e-24,8.093375248540835e-24,1.980986767604019e-14
1201214146850325.5,7.016454611398287e-24,7.016454611398287e-24,1.7156110648576615e-14
1327546941480029.5,5.962766054415808e-24,5.962766054415808e-24,1.4562430829261468e-14
1467166272104001.5,5.005437228776654e-24,5.005437228776654e-24,1.2208997252304966e-14
1621469495910807.2,4.112816643292193e-24,4.112816643292193e-24,1.0018972504139303e-14
1792000931427403.8,3.32964713165223e-24,3.32964713165223e-24,8.099370858801766e-15
1980467314578038.8,2.6346282430018895e-24,2.6346282430018895e-24,6.399811377351277e-15
2188754880271022.8,2.0475608059024373e-24,2.0475608059024373e-24,4.965494246900579e-15
2418948240471679.5,1.5528504630580028e-24,1.5528504630580028e-24,3.7596257845815076e-15
2673351247699562.5,1.1524696500504391e-24,1.1524696500504391e-24,2.7847482333438517e-15
2954510052758802.0,8.330435477642078e-25,8.330435477642078e-25,2.0087062976580867e-15
3265238587471174.5,5.868800016770204e-25,5.868800016770204e-25,1.4116029068119598e-15
3608646727451548.0,4.0165040154181233e-25,4.0165040154181233e-25,9.633396491081678e-16
3988171416788306.5,2.6673002001759144e-25,2.6673002001759144e-25,6.375790722396491e-16
4407611066134995.0,1.714773739592849e-25,1.714773739592849e-25,4.082405441513703e-16
4871163568480795.0,1.064535685477477e-25,1.064535685477477e-25,2.5220440777920463e-16
5383468313074566.0,6.369067798003802e-26,6.369067798003802e-26,1.499980111040228e-16
5949652617991774.0,3.6593188254056685e-26,3.6593188254056685e-26,8.55629769703836e-17
6575383046057147.0,2.0150313641790145e-26,2.0150313641790145e-26,4.670810624465487e-17
7266922117710036.0,1.0589458399997665e-26,1.0589458399997665e-26,2.4294676653395692e-17
8031190988413828.0,5.299964672060969e-27,5.299964672060969e-27,1.2014249428676775e-17
8875838717906175.0,2.5147401805040067e-27,2.5147401805040067e-27,5.6233226995839936e-18
9809318824559742.0,1.1285220081278922e-27,1.1285220081278922e-27,2.485941085585581e-18
1.084097389103542e+16,4.765575168443774e-28,4.765575168443774e-28,1.0331126303638308e-18
1.1981129067989756e+16,1.8878556666882516e-28,1.8878556666882516e-28,4.0264926787184855e-19
1.3241195411653064e+16,6.973574125536629e-29,6.973574125536629e-29,1.4637279989027534e-19
1.4633784089515666e+16,2.3917517831154417e-29,2.3917517831154417e-29,4.9456289321685065e-20
1.6172832597130828e+16,7.559936617051558e-30,7.559936617051558e-30,1.542151712785685e-20
1.7873744249254828e+16,2.189029831017657e-30,2.189029831017657e-30,4.412112997181237e-21
1.9753542341398316e+16,5.756788932026124e-31,5.756788932026124e-31,1.1479047614469563e-21
2.1831040524689348e+16,1.3642984984515962e-31,1.3642984984515962e-31,2.6928367314222472e-22
2.4127031099217584e+16,2.8878140529542227e-32,2.8878140529542227e-32,5.640430634819611e-23
2.6664493110361988e+16,5.4076302018885254e-33,5.4076302018885254e-33,1.0438985735401302e-23
2.946882233080053e+16,8.873510456278366e-34,8.873510456278366e-34,1.6899692663464118e-24
3.2568085429939016e+16,1.259286081771518e-34,1.259286081771518e-34,2.3621139463804023e-25
3.5993300874571748e+16,1.5249950760314278e-35,1.5249950760314278e-35,2.814384428536466e-26
3.977874937212352e+16,1.5423602978532805e-36,1.5423602978532805e-36,2.801498676362452e-27
4.3962316963490904e+16,1.275100692129068e-37,1.275100692129068e-37,2.2829691409441534e-28
4.858587419927376e+16,8.339236489743491e-39,8.339236489743491e-39,1.4756192560714394e-29
5.3695695194319384e+16,4.189803301658032e-40,4.189803301658032e-40,7.348103526147974e-31
5.934292075461597e+16,1.5510906037992663e-41,1.5510906037992663e-41,2.703780053398277e-32
6.5584070211669416e+16,4.087002187899107e-43,4.087002187899107e-43,7.0973727920210344e-34
7.248160708696853e+16,7.302837805591278e-45,7.302837805591278e-45,1.2657185330007913e-35
8.010456424790322e+16,8.501103757715716e-47,8.501103757715716e-47,1.4725697716244813e-37
8.852923481190501e+16,6.098961631545801e-49,6.098961631545801e-49,1.0569048781923157e-39
9.783993571360744e+16,2.5708249978719528e-51,2.5708249978719528e-51,4.4603193182243277e-42
1.0812985157707003e+17,5.969510701594705e-54,5.969510701594705e-54,1.0374220248465177e-44
1.1950196733881418e+17,7.204498476658859e-57,7.204498476658859e-57,1.254689572605526e-47
1.3207009895568304e+17,4.189515198166362e-60,4.189515198166362e-60,7.31330592940624e-51
1.4596003251319405e+17,1.0930033382648648e-63,1.0930033382648648e-63,1.9130199352884577e-54
1.613107831349577e+17,1.1690793323384483e-67,1.1690793323384483e-67,2.0518506738719996e-58
1.7827598629276314e+17,4.694711849531713e-72,4.694711849531713e-72,8.264708802079564e-63
1.970254354420149e+17,6.352357831810781e-77,6.352357831810781e-77,1.1217872594261831e-67
2.1774678137170538e+17,2.5979373006042068e-82,2.5979373006042068e-82,4.60336354851849e-73
2.406474102765853e+17,2.817982907261781e-88,2.817982907261781e-88,5.0106061808783964e-79
2.659565193479003e+17,7.089982078313008e-95,7.089982078313008e-95,1.2653829741718969e-85
2.939274106559231e+17,3.531480401201045e-102,3.531480401201045e-102,6.326857561915513e-93
3.2484002628220486e+17,2.952445454122381e-110,2.952445454122381e-110,5.311194422882862e-101
3.590037500740211e+17,3.418002384443043e-119,3.418002384443043e-119,6.174265093537509e-110
3.967605040619068e+17,4.47311188604275e-129,4.47311188604275e-129,8.116212721402064e-120
4.384881705302534e+17,5.237263504971342e-140,5.237263504971342e-140,9.545420538077877e-131
4.846043739902319e+17,4.27673320942411e-152,4.27673320942411e-152,7.832128902064775e-143
5.3557066090625984e+17,1.8323068600683253e-165,1.8323068600683253e-165,3.3717134671448426e-156
5.918971190081513e+17,3.0352295356095967e-180,3.0352295356095967e-180,5.613827983540415e-171
6.541474824205704e+17,1.374428589744388e-196,1.374428589744388e-196,2.555072618746612e-187
7.229447737036164e+17,1.170594079707299e-214,1.170594079707299e-214,2.187913583606369e-205
7.989775392720152e+17,1.229039127388715e-234,1.229039127388715e-234,2.309514853721688e-225
8.830067405990762e+17,1.0065085958142317e-256,1.0065085958142317e-256,1.9020887830353165e-247
9.758733701748641e+17,3.841332716342326e-281,3.841332716342326e-281,7.300148884342599e-272
1.0785068684417325e+18,3.9023701451310106e-308,3.9023701451310106e-308,7.459997553304711e-299
1.191934425946643e+18,0.0,0.0,0.0
1.3172912638094185e+18,0.0,0.0,0.0
1.4558319953972874e+18,0.0,0.0,0.0
1.6089431829171187e+18,0.0,0.0,0.0
1.778157214596069e+18,0.0,0.0,0.0
1.9651676413379768e+18,0.0,0.0,0.0
2.1718461263500424e+18,0.0,0.0,0.0
2.4002611773773184e+18,0.0,0.0,0.0
2.6526988490234204e+18,0.0,0.0,0.0
2.9316856223534316e+18,0.0,0.0,0.0
3.240013690765523e+18,0.0,0.0,0.0
