Energy,Neutrino Flux Best Fit,Neutrino Flux Min,Neutrino Flux Max
6736111111.111112,5.0653260532698126e-30,5.0653260532698126e-30,1.6186929179372905e-20
7444554100.926239,6.186352576077262e-30,6.186352576077262e-30,1.976936311349009e-20
8227504690.384479,7.55540259128299e-30,7.55540259128299e-30,2.414441594361867e-20
9092798912.143911,9.227319660349377e-30,9.227319660349377e-30,2.948736033511633e-20
10049096921.611336,1.1269061512727805e-29,1.1269061512727805e-29,3.6012187034473073e-20
11105969670.688364,1.3762370310522515e-29,1.3762370310522515e-29,4.3980140497012895e-20
12273994697.074959,1.6807029058050622e-29,1.6807029058050622e-29,5.3710128673514954e-20
13564861987.821962,2.052483173215139e-29,2.052483173215139e-29,6.55914151003308e-20
14991490976.650652,2.506442198906276e-29,2.506442198906276e-29,8.009908881558943e-20
16568159845.98779,3.060718819806515e-29,3.060718819806515e-29,9.781291303233568e-20
18310648427.814404,3.7374442117921283e-29,3.7374442117921283e-29,1.1944028035471213e-19
20236396133.52806,4.563615598094567e-29,4.563615598094567e-29,1.4584415455289871e-19
22364676493.433693,5.572158944910515e-29,5.572158944910515e-29,1.7807706096700097e-19
24716790052.712967,6.803220537107154e-29,6.803220537107154e-29,2.174224044414715e-19
27316277554.43983,8.305735313166088e-29,8.305735313166088e-29,2.6544465067897277e-19
30189155543.249466,1.0139329234471604e-28,1.0139329234471604e-28,3.240502097014351e-19
33364176747.66154,1.2376621418100218e-28,1.2376621418100218e-28,3.955611368851892e-19
36873117847.051285,1.5105980228831583e-28,1.5105980228831583e-28,4.828034324844512e-19
40751097503.33721,1.8434929824938653e-28,1.8434929824938653e-28,5.892161227320317e-19
45036927840.353424,2.2494176611785696e-28,2.2494176611785696e-28,7.189803487041643e-19
49773502888.63008,2.7442518968135433e-28,2.7442518968135433e-28,8.771767767684217e-19
55008227883.26821,3.347265592322656e-28,3.347265592322656e-28,1.069972046199546e-18
60793493711.465965,4.08182290774324e-28,4.08182290774324e-28,1.3048448609411286e-18
67187201258.12696,4.976209757775238e-28,4.976209757775238e-28,1.5908520493489139e-18
74253340897.37749,6.064531019328149e-28,6.064531019328149e-28,1.938918591522807e-18
82062632929.73868,7.387262795720299e-28,7.387262795720299e-28,2.3620245087130956e-18
90693235374.66418,8.992371549601631e-28,8.992371549601631e-28,2.875569789823948e-18
100231526202.26842,1.0936637556881043e-27,1.0936637556881043e-27,3.497806139694078e-18
110772967833.08434,1.3287148431182696e-27,1.3287148431182696e-27,4.250326644462416e-18
122423062558.054,1.6123483336069132e-27,1.6123483336069132e-27,5.158773600110845e-18
135298408440.91695,1.953978361315592e-27,1.953978361315592e-27,6.2535195015424646e-18
149527866270.82214,2.364794964613668e-27,2.364794964613668e-27,7.570702930703592e-18
165253849244.41718,2.8580633401198774e-27,2.8580633401198774e-27,9.153212996678219e-18
182633748284.9872,3.449517003857406e-27,3.449517003857406e-27,1.1051975288598418e-17
201841507263.7161,4.157829915366946e-27,4.157829915366946e-27,1.3327496653953574e-17
223069363888.4135,5.0052163432867944e-27,5.0052163432867944e-27,1.605182138437941e-17
246529773683.1087,6.017321121887408e-27,6.017321121887408e-27,1.9308327086521085e-17
272457536314.34293,7.220996195084808e-27,7.220996195084808e-27,2.3185044600586152e-17
301112145545.1515,8.656792432577214e-27,8.656792432577214e-27,2.78132751811615e-17
332780386335.8631,1.0362036563524053e-26,1.0362036563524053e-26,3.3315735028105076e-17
367779205084.3744,1.2393555463084423e-26,1.2393555463084423e-26,3.9876821758119853e-17
406458881732.23016,1.480335207798548e-26,1.480335207798548e-26,4.766793690424355e-17
449206535484.00977,1.7670226848747712e-26,1.7670226848747712e-26,5.694546026068544e-17
496449999226.4439,2.1066098002529274e-26,2.1066098002529274e-26,6.794712149856351e-17
548662101423.7438,2.5102664857340736e-26,2.5102664857340736e-26,8.10368351213826e-17
606365398343.7928,2.9877995716576346e-26,2.9877995716576346e-26,9.653999112675695e-17
670137403976.9156,3.554891934129207e-26,3.554891934129207e-26,1.1496845367025258e-16
740616369989.9988,4.225081306387714e-26,4.225081306387714e-26,1.367726151774421e-16
818507673563.7009,5.0193156500103144e-26,5.0193156500103144e-26,1.6263939861079006e-16
904590877044.3574,5.956067754329939e-26,5.956067754329939e-26,1.9318545829136501e-16
999727530065.9674,7.064747716385616e-26,7.064747716385616e-26,2.293766899841751e-16
1104869792228.5056,8.370386484737199e-26,8.370386484737199e-26,2.7205178541276e-16
1221069962631.227,9.912558254723812e-26,9.912558254723812e-26,3.225158726231715e-16
1349491011635.7507,1.1724398368387837e-25,1.1724398368387837e-25,3.8188529456264584e-16
1491418220264.3164,1.385969940337774e-25,1.385969940337774e-25,4.519401240394092e-16
1648272043724.2625,1.6362313841904808e-25,1.6362313841904808e-25,5.341656864063799e-16
1821622327801.168,1.9305072826794804e-25,1.9305072826794804e-25,6.309805978616458e-16
2013204020403.1145,2.2745707211859836e-25,2.2745707211859836e-25,7.443512404446256e-16
2224934535502.496,2.6782011361146916e-25,2.6782011361146916e-25,8.775382084683048e-16
2458932943259.5073,3.148962747947963e-25,3.148962747947963e-25,1.0331328598522041e-15
2717541178388.563,3.699985839697825e-25,3.699985839697825e-25,1.215529692318311e-15
3003347479028.0674,4.3411558658508845e-25,4.3411558658508845e-25,1.428134400721713e-15
3319212290697.63,5.089925485092108e-25,5.089925485092108e-25,1.6768138640567427e-15
3668296894598.275,5.958651620800173e-25,5.958651620800173e-25,1.9658686873032936e-15
4054095046777.2207,6.969926592864512e-25,6.969926592864512e-25,2.3029430108657916e-15
4480467944812.715,8.139170539644687e-25,8.139170539644687e-25,2.6934582256502578e-15
4951682871977.182,9.495660407470848e-25,9.495660407470848e-25,3.1473821931005147e-15
5472455905642.4795,1.1058187221179675e-24,1.1058187221179675e-24,3.671406783759451e-15
6047999117367.402,1.2864290943853344e-24,1.2864290943853344e-24,4.278403240543373e-15
6684072737061.636,1.4936343190286239e-24,1.4936343190286239e-24,4.9764655065997336e-15
7387042803302.812,1.732207611943776e-24,1.732207611943776e-24,5.782084366403496e-15
8163944876790.279,2.0047456993732036e-24,2.0047456993732036e-24,6.704839286443147e-15
9022554454601.29,2.3172600440410435e-24,2.3172600440410435e-24,7.765672177387836e-15
9971464789979.236,2.672649729085887e-24,2.672649729085887e-24,8.975559948207411e-15
11020172896500.342,3.0783951807563997e-24,3.0783951807563997e-24,1.036080511789225e-14
12179174597377.648,3.537519181897911e-24,3.537519181897911e-24,1.1933322585571651e-14
13460069571187.469,4.059138799157919e-24,4.059138799157919e-24,1.3725539463605418e-14
14875677445351.34,4.646132419232517e-24,4.646132419232517e-24,1.574956264814297e-14
16440166099276.152,5.309556913061509e-24,5.309556913061509e-24,1.8045178007381327e-14
18169193461253.16,6.0517497335554486e-24,6.0517497335554486e-24,2.062350857493383e-14
20080064218267.2,6.885973384108825e-24,6.885973384108825e-24,2.3532875415050887e-14
22191903007120.316,7.813419444696264e-24,7.813419444696264e-24,2.678152819987208e-14
24525845820224.918,8.849863704260002e-24,8.849863704260002e-24,3.042768472252517e-14
27105251541719.75,9.994511426185534e-24,9.994511426185534e-24,3.447397645978005e-14
29955935731033.766,1.1265995150916333e-23,1.1265995150916333e-23,3.899004094745332e-14
33106428993681.67,1.2660388541798429e-23,1.2660388541798429e-23,4.3968992759543874e-14
36588262525153.4,1.4199755071970877e-23,1.4199755071970877e-23,4.949416273950139e-14
40436283685716.66,1.587571104092671e-23,1.587571104092671e-23,5.5544358673086865e-14
44689004764510.79,1.771409679941966e-23,1.771409679941966e-23,6.22182036238874e-14
49388988423481.36,1.9699931739883354e-23,1.9699931739883354e-23,6.947240873262838e-14
54583273678806.414,2.1863382015034883e-23,2.1863382015034883e-23,7.742312402223396e-14
60323846683180.79,2.4180322814169176e-23,2.4180322814169176e-23,8.599521437942543e-14
66668161020705.625,2.668591461954489e-23,2.668591461954489e-23,9.532496762479017e-14
73679712721668.31,2.934368068664111e-23,2.934368068664111e-23,1.0529266488787537e-13
81428675752156.11,3.2194516264016284e-23,3.2194516264016284e-23,1.1605759745006338e-13
89992604338694.56,3.518568443374402e-23,3.518568443374402e-23,1.2743933465363537e-13
99457209157013.72,3.836486474827125e-23,3.836486474827125e-23,1.3962410795224325e-13
109917215153298.53,4.165871213455051e-23,4.165871213455051e-23,1.5235178525468002e-13
121477309583289.38,4.512329443115874e-23,4.512329443115874e-23,1.6584149378503434e-13
134253189757523.53,4.8659879375227864e-23,4.8659879375227864e-23,1.7973137662803245e-13
148372720978906.38,5.2335097559743045e-23,5.2335097559743045e-23,1.9428184518541848e-13
163977216261640.06,5.601991425355502e-23,5.601991425355502e-23,2.0900514274786777e-13
181222850639365.72,5.979455820944929e-23,5.979455820944929e-23,2.2421527678784162e-13
200282224217393.72,6.349510120821437e-23,6.349510120821437e-23,2.3927398431663916e-13
221346089612569.66,6.721936576298445e-23,6.721936576298445e-23,2.545662973015859e-13
244625261069578.06,7.07639809215609e-23,7.07639809215609e-23,2.69278436194477e-13
270352724360760.97,7.424843931990397e-23,7.424843931990397e-23,2.838875143916244e-13
298785968586034.6,7.74286588033094e-23,7.74286588033094e-23,2.973897826579853e-13
330209563210349.3,8.045536182545733e-23,8.045536182545733e-23,3.1039597078930325e-13
364938006130540.25,8.304510714000515e-23,8.304510714000515e-23,3.2170837936440325e-13
403318871275985.3,8.538758599663335e-23,8.538758599663335e-23,3.321120332921994e-13
445736287245315.25,8.716191587745658e-23,8.716191587745658e-23,3.402177105579747e-13
492614781794535.5,8.860509993136989e-23,8.860509993136989e-23,3.470302983101441e-13
544423530653501.4,8.936201102441337e-23,8.936201102441337e-23,3.509818028829006e-13
601681053194315.4,8.972333541193935e-23,8.972333541193935e-23,3.533363580248611e-13
664960401947484.0,8.930306193136294e-23,8.930306193136294e-23,3.5236847100619956e-13
734894897904253.5,8.844719511944332e-23,8.844719511944332e-23,3.496209767614221e-13
812184469005953.0,8.671407659520436e-23,8.671407659520436e-23,3.43158349916518e-13
897602655258091.0,8.45520692009869e-23,8.45520692009869e-23,3.349420966888586e-13
992004350578723.1,8.152847077946554e-23,8.152847077946554e-23,3.230459083510776e-13
1096334358864123.6,7.811806911914041e-23,7.811806911914041e-23,3.0960802536698e-13
1211636849903741.8,7.389261441606079e-23,7.389261441606079e-23,2.9273403596434824e-13
1339065809782403.5,6.94015088259615e-23,6.94015088259615e-23,2.748382436698431e-13
1479896590360929.0,6.4233524534233e-23,6.4233524534233e-23,2.541332893176957e-13
1635538673426208.0,5.899040463614603e-23,5.899040463614603e-23,2.331802902267528e-13
1807549777258668.5,5.32862003753194e-23,5.32862003753194e-23,2.1035680211574173e-13
1997651446800397.5,4.772191016150893e-23,4.772191016150893e-23,1.8814171457135083e-13
2207746283455540.8,4.195509593638716e-23,4.195509593638716e-23,1.6515231374298764e-13
2439936986964658.0,3.652671125666454e-23,3.652671125666454e-23,1.4354837199478748e-13
2696547399930459.5,3.1151527900748274e-23,3.1151527900748274e-23,1.2222956981371297e-13
2980145765615645.0,2.627241358219379e-23,2.627241358219379e-23,1.0289162571898207e-13
3293570431784701.0,2.164573563362314e-23,2.164573563362314e-23,8.465238625696052e-14
3639958257842304.0,1.759587980700478e-23,1.759587980700478e-23,6.868801203011937e-14
4022776009576612.5,1.3966053818437447e-23,1.3966053818437447e-23,5.44348940589475e-14
4445855055716473.5,1.0900511073799752e-23,1.0900511073799752e-23,4.240316488457722e-14
4913429713557433.0,8.294819957074901e-24,8.294819957074901e-24,3.2212525408250856e-14
5430179627432442.0,6.182866467338358e-24,6.182866467338358e-24,2.396048909729727e-14
6001276604165188.0,4.48767139679252e-24,4.48767139679252e-24,1.7355225878034243e-14
6632436374251143.0,3.1787448691885604e-24,3.1787448691885604e-24,1.2261530534686438e-14
7329975796809454.0,2.190326462501379e-24,2.190326462501379e-24,8.423194285634035e-15
8100876080832178.0,1.4674569297778333e-24,1.4674569297778333e-24,5.62204531821685e-15
8952852655470364.0,9.539924553561939e-25,9.539924553561939e-25,3.638084987932886e-15
9894432388642178.0,6.004199015879825e-25,6.004199015879825e-25,2.2770003212410147e-15
1.0935038926793096e+16,3.6535959997369695e-25,3.6535959997369695e-25,1.3762182418075458e-15
1.2085087009916866e+16,2.141977243562297e-25,2.141977243562297e-25,8.003888547407674e-16
1.3356086705773902e+16,1.2078454621976815e-25,1.2078454621976815e-25,4.471191540320941e-16
1.4760758606518116e+16,6.518973537320198e-26,6.518973537320198e-26,2.387844641108294e-16
1.6313161140658638e+16,3.358344946288499e-26,3.358344946288499e-26,1.2159982213193703e-16
1.802883127453768e+16,1.6414526364449872e-26,1.6414526364449872e-26,5.871690136569056e-17
1.9924940011511748e+16,7.58320610483492e-27,7.58320610483492e-27,2.6794596586212233e-17
2.2020464245124636e+16,3.2904891293637506e-27,3.2904891293637506e-27,1.1487381089441665e-17
2.43363766862364e+16,1.3353264208872517e-27,1.3353264208872517e-27,4.609182055068569e-18
2.689585576496266e+16,5.0308538839882965e-28,5.0308538839882965e-28,1.7187698272051483e-18
2.9724517608193976e+16,1.7504282051851648e-28,1.7504282051851648e-28,5.92745198585057e-19
3.285067241440348e+16,5.581225911449224e-29,5.581225911449224e-29,1.875970012450088e-19
3.630560779162862e+16,1.6219932583378377e-29,1.6219932583378377e-29,5.418552284835747e-20
4.012390189436866e+16,4.260658257786617e-30,4.260658257786617e-30,1.4161230701691032e-20
4.434376949337661e+16,1.0048617797274113e-30,1.0048617797274113e-30,3.324697018254963e-21
4.90074444419299e+16,2.1110944476240442e-31,2.1110944476240442e-31,6.953151955705324e-22
5.416160236642894e+16,3.9189920545442704e-32,3.9189920545442704e-32,1.2841995189806714e-22
5.9857827811754424e+16,6.376002988951847e-33,6.376002988951847e-33,2.0768125016541377e-23
6.615313051673077e+16,8.983244952999607e-34,8.983244952999607e-34,2.905887475774904e-24
7.311051598675333e+16,1.0822143014308594e-34,1.0822143014308594e-34,3.474626734608353e-25
8.079961607406459e+16,1.0913218068818937e-35,1.0913218068818937e-35,3.478240164886131e-26
8.929738587673395e+16,9.014539849948572e-37,9.014539849948572e-37,2.8542271240470967e-27
9.868887393114523e+16,5.899885047829648e-38,5.899885047829648e-38,1.8581685074279654e-28
1.0906807340633578e+17,2.969672933604075e-39,2.969672933604075e-39,9.316433514990782e-30
1.2053886281922198e+17,1.1020737795698989e-40,1.1020737795698989e-40,3.4484881370379872e-31
1.3321604568571427e+17,2.912124575592811e-42,2.912124575592811e-42,9.098670353789786e-33
1.4722649951288848e+17,5.219192311113471e-44,5.219192311113471e-44,1.629606717589772e-34
1.6271044563172253e+17,6.095339351771383e-46,6.095339351771383e-46,1.903107984424586e-36
1.7982285257930877e+17,4.387910985682632e-48,4.387910985682632e-48,1.3705443964795766e-38
1.987349870760561e+17,1.8565812824097257e-50,1.8565812824097257e-50,5.803179526188955e-41
2.196361281205972e+17,4.328610396372547e-53,4.328610396372547e-53,1.3542553418681995e-43
2.427354613576213e+17,5.24844409171549e-56,5.24844409171549e-56,1.6438534142982954e-46
2.6826417267811766e+17,3.067512409095167e-59,3.067512409095167e-59,9.619059624454748e-50
2.964777620054798e+17,8.048852403574604e-63,8.048852403574604e-63,2.527229421261706e-53
3.276586004246087e+17,8.66166202969656e-67,8.66166202969656e-67,2.723256867437354e-57
3.621187562466471e+17,3.501516338097591e-71,3.501516338097591e-71,1.1024560586016915e-61
4.002031182935192e+17,4.7699017008365764e-76,4.7699017008365764e-76,1.5039645580472514e-66
4.422928476611847e+17,1.964443738577684e-81,1.964443738577684e-81,6.203418343805957e-72
4.8880919250800474e+17,2.1451115898905805e-87,2.1451115898905805e-87,6.784347102241954e-78
5.4021770404788646e+17,5.432470242033029e-94,5.432470242033029e-94,1.7209345412827596e-84
5.97032895943322e+17,2.721731381892883e-101,2.721731381892883e-101,8.636223632092858e-92
6.598233937310447e+17,2.2876855229870146e-109,2.2876855229870146e-109,7.271621674764765e-100
7.292176258175267e+17,2.6599978393537576e-118,2.6599978393537576e-118,8.469837365756982e-109
8.059101130017012e+17,3.493734900633314e-128,3.493734900633314e-128,1.1145259021176906e-118
8.906684194725372e+17,4.1005437303163906e-139,4.1005437303163906e-139,1.3105405943738189e-129
9.843408348494511e+17,3.353502750331158e-151,3.353502750331158e-151,1.0739086828042257e-141
1.087864864149919e+18,1.4370331433250255e-164,1.4370331433250255e-164,4.61102612444784e-155
1.2022766106548032e+18,2.3782942262673093e-179,2.3782942262673093e-179,7.647384128216201e-170
1.3287211455782487e+18,1.0744819766166343e-195,1.0744819766166343e-195,3.4623085795054673e-186
1.4684639683252413e+18,9.119025330412468e-214,9.119025330412468e-214,2.9450505067275796e-204
1.6229036720350124e+18,9.526830918509411e-234,9.526830918509411e-234,3.083711605051483e-224
1.7935859411712768e+18,7.75263696070529e-256,7.75263696070529e-256,2.515466905072614e-246
1.9822190212518303e+18,2.935817335269467e-280,2.935817335269467e-280,9.548740526819716e-271
2.1906908155439002e+18,2.9549787830760277e-307,2.9549787830760277e-307,9.635787372682196e-298
2.4210877798345446e+18,0.0,0.0,0.0
2.6757158043814697e+18,0.0,0.0,0.0
2.957123292037793e+18,0.0,0.0,0.0
3.268126663524282e+18,0.0,0.0,0.0
3.611838545114639e+18,0.0,0.0,0.0
3.9916989208453627e+18,0.0,0.0,0.0
4.411509561032232e+18,0.0,0.0,0.0
4.875472071665496e+18,0.0,0.0,0.0
5.388229945494724e+18,0.0,0.0,0.0
5.954915035665109e+18,0.0,0.0,0.0
6.581198917028496e+18,0.0,0.0,0.0
