Energy,Neutrino Flux Best Fit,Neutrino Flux Min,Neutrino Flux Max
8537735849.056603,4.448041037744634e-31,4.448041037744634e-31,7.740531295875548e-21
9435657366.589256,5.432746748062084e-31,5.432746748062084e-31,9.454121178444854e-21
10428014114.480696,6.6354299800261055e-31,6.6354299800261055e-31,1.154703426633825e-20
11524737932.606441,8.10433641539302e-31,8.10433641539302e-31,1.41032264597427e-20
12736805201.559902,9.898387447272385e-31,9.898387447272385e-31,1.7225230868441466e-20
14076346697.958641,1.208954136243811e-30,1.208954136243811e-30,2.103826643090174e-20
15556769003.334063,1.4765676274435843e-30,1.4765676274435843e-30,2.5695254345307212e-20
17192888681.705482,1.8034109889682555e-30,1.8034109889682555e-30,3.138294251730929e-20
19001080568.73286,2.2025896480210112e-30,2.2025896480210112e-30,3.8329382214454744e-20
20999441656.575844,2.6901072245725374e-30,2.6901072245725374e-30,4.6813054692189274e-20
23207972214.673923,3.2855057760087194e-30,3.2855057760087194e-30,5.717401077940517e-20
25648775959.165302,4.012647184614116e-30,4.012647184614116e-30,6.98274657689182e-20
28346281274.30732,4.900666673659255e-30,4.900666673659255e-30,8.528038844721779e-20
31327485699.956757,5.9851361837724464e-30,5.9851361837724464e-30,1.0415174032353844e-19
34622226132.022934,7.309483531548183e-30,7.309483531548183e-30,1.2719716340646322e-19
38263477440.15045,8.92672320615938e-30,8.92672320615938e-30,1.5533908740277918e-19
42287682491.29791,1.0901566364788177e-29,1.0901566364788177e-29,1.8970343004911885e-19
46735116882.19921,1.33129889778407e-29,1.33129889778407e-29,2.3166425826497583e-19
51650292031.0728,1.6257371307195957e-29,1.6257371307195957e-29,2.8289839122098027e-19
57082400662.85603,1.985231058064713e-29,1.985231058064713e-29,3.454516925798294e-19
63085809146.53055,2.424127382721077e-29,2.424127382721077e-29,4.218199698399291e-19
69720601612.01627,2.959924552005404e-29,2.959924552005404e-29,5.150471437948461e-19
77053181292.33849,3.613961390437713e-29,3.613961390437713e-29,6.288449416748472e-19
85156935109.50307,4.4122516733649336e-29,4.4122516733649336e-29,7.677379102728253e-19
94112968155.47784,5.386487721946255e-29,5.386487721946255e-29,9.37237628532141e-19
104010915419.21361,6.575190535600427e-29,6.575190535600427e-29,1.1440415355393509e-18
114949838883.74084,8.025168073639205e-29,8.025168073639205e-29,1.396285746574443e-18
127039218971.79167,9.793268015359445e-29,9.793268015359445e-29,1.7038488707316379e-18
140400050262.66824,1.1948507581348997e-28,1.1948507581348997e-28,2.0787209884735867e-18
155166052446.66016,1.4574683963955821e-28,1.4574683963955821e-28,2.5354564680741106e-18
171485008636.6494,1.7773489621640124e-28,1.7773489621640124e-28,3.091713435734456e-18
189520244431.17624,2.1668353667425794e-28,2.1668353667425794e-28,3.768920031170981e-18
209452262531.92416,2.640900585761203e-28,2.640900585761203e-28,4.593064600985574e-18
231480549275.42822,3.2177025043664903e-28,3.2177025043664903e-28,5.5956567482409335e-18
255825571159.38025,3.9192565622821248e-28,3.9192565622821248e-28,6.814892327700771e-18
282730981345.4391,4.77225141301966e-28,4.77225141301966e-28,8.297066457355336e-18
312466058221.9677,5.80892822851236e-28,5.80892822851236e-28,1.009808365147159e-17
345328400432.6509,7.0678681441172245e-28,7.0678681441172245e-28,1.2284773179242712e-17
381646905343.7477,8.596908656746395e-28,8.596908656746395e-28,1.4940119739960765e-17
421785060759.47943,1.0452416359472455e-27,1.0452416359472455e-27,1.8161718742794012e-17
466144582830.14655,1.2704449997543315e-27,1.2704449997543315e-27,2.207104794837549e-17
515169436562.3831,1.5435213209182263e-27,1.5435213209182263e-27,2.6810380287866768e-17
569350279170.1628,1.8747032176341302e-27,1.8747032176341302e-27,3.255705302770193e-17
629229370737.115,2.2759467751753967e-27,2.2759467751753967e-27,3.951790232365247e-17
695406001337.6997,2.7622022184086385e-27,2.7622022184086385e-27,4.7951934784015065e-17
768542488933.7003,3.3508006909180246e-27,3.3508006909180246e-27,5.815881759691056e-17
849370808075.0013,4.063526067561912e-27,4.063526067561912e-27,7.051579466410924e-17
938699915746.9037,4.92545878299904e-27,4.92545878299904e-27,8.545632764436148e-17
1037423847683.5391,5.968136844756413e-27,5.968136844756413e-27,1.0352619100614845e-16
1146530666177.9873,7.227728411107528e-27,7.227728411107528e-27,1.2535015393175237e-16
1267112348941.8096,8.749975270493991e-27,8.749975270493991e-27,1.5171948732818868e-16
1400375717985.011,1.0586857209067783e-26,1.0586857209067783e-26,1.8353160035784e-16
1547654517896.3381,1.2804337880510418e-26,1.2804337880510418e-26,2.2192686302497085e-16
1710422764407.4207,1.5476776849615552e-26,1.5476776849615552e-26,2.681882291698217e-16
1890309496837.6357,1.8699115848386407e-26,1.8699115848386407e-26,3.239561371266033e-16
2089115082067.1646,2.2577349384690858e-26,2.2577349384690858e-26,3.910581721209709e-16
2308829233213.8516,2.724769551146444e-26,2.724769551146444e-26,4.718466494990032e-16
2551650923350.8447,3.2860610960545996e-26,3.2860610960545996e-26,5.689140613441988e-16
2820010393568.2285,3.961081514735669e-26,3.961081514735669e-26,6.856209994311504e-16
3116593475642.6665,4.77109094845539e-26,4.77109094845539e-26,8.256282572013994e-16
3444368472744.578,5.743828141060406e-26,5.743828141060406e-26,9.9372041845872e-16
3806615867213.9434,6.909187643075548e-26,6.909187643075548e-26,1.19504145173143e-15
4206961152730.16,8.306513357839769e-26,8.306513357839769e-26,1.436373563127269e-15
4649411119471.379,9.977543886151613e-26,9.977543886151613e-26,1.7248926846484972e-15
5138393955417.306,1.1977774289736444e-25,1.1977774289736444e-25,2.0701584799997724e-15
5678803565142.9,1.4365130219999176e-25,1.4365130219999176e-25,2.4821214502744963e-15
6276048549660.243,1.7217536106286291e-25,1.7217536106286291e-25,2.974195880728767e-15
6936106337515.346,2.0614780609288092e-25,2.0614780609288092e-25,3.560075463345722e-15
7665583008902.156,2.4665679898860268e-25,2.4665679898860268e-25,4.258479245989739e-15
8471779411533.479,2.9479224233081894e-25,2.9479224233081894e-25,5.088094551498372e-15
9362764229978.82,3.520646974327128e-25,3.520646974327128e-25,6.074888296534801e-15
10347454739771.533,4.199489355688057e-25,4.199489355688057e-25,7.244120738292125e-15
11435706054499.512,5.00528207053132e-25,5.00528207053132e-25,8.631577587085797e-15
12638409759094.475,5.957760723839272e-25,5.957760723839272e-25,1.0271024922358691e-14
13967602916474.66,7.085447840695683e-25,7.085447840695683e-25,1.2211421992071268e-14
15436588538516.389,8.414407726939651e-25,8.414407726939651e-25,1.4497307850403403e-14
17060068727068.186,9.983370794405645e-25,9.983370794405645e-25,1.7195112175411068e-14
18854291817527.586,1.1826231940792559e-24,1.1826231940792559e-24,2.036267622952128e-14
20837214997643.14,1.399513449248578e-24,1.399513449248578e-24,2.408936676987149e-14
23028684029084.918,1.6533342154245773e-24,1.6533342154245773e-24,2.844890028427957e-14
25450631870497.773,1.9510383619109206e-24,1.9510383619109206e-24,3.3560348020700434e-14
28127298189923.35,2.2980209728769286e-24,2.2980209728769286e-24,3.95154741262455e-14
31085471963545.137,2.7034558908077494e-24,2.7034558908077494e-24,4.6471264936191366e-14
34354759588765.973,3.1738719752469765e-24,3.1738719752469765e-24,5.453853332119193e-14
37967881194984.63,3.721234213824165e-24,3.721234213824165e-24,6.39218745948804e-14
41960998117648.266,4.353128642443032e-24,4.353128642443032e-24,7.474969545965162e-14
46374074813051.836,5.0849667872246574e-24,5.0849667872246574e-24,8.728533570028324e-14
51251278836049.34,5.925058891192908e-24,5.925058891192908e-24,1.0166892758344776e-13
56641422883787.64,6.892983016198193e-24,6.892983016198193e-24,1.182347719870842e-13
62598453329586.56,7.997002429831488e-24,7.997002429831488e-24,1.3712133442822715e-13
69181990136374.74,9.261626034966503e-24,9.261626034966503e-24,1.5874684043260195e-13
76457923553317.64,1.0693617025391694e-23,1.0693617025391694e-23,1.832230381227278e-13
84499073567577.86,1.2323192055410193e-23,1.2323192055410193e-23,2.1106525638572239e-13
93385918711221.67,1.415313934108114e-23,1.415313934108114e-23,2.423160491468948e-13
103207401517418.62,1.62201510587557e-23,1.62201510587557e-23,2.7760089011157475e-13
114061818687207.5,1.8519112409878795e-23,1.8519112409878795e-23,3.168259408057168e-13
126057804875919.34,2.1093973842597924e-23,2.1093973842597924e-23,3.6074016746034427e-13
139315419945320.58,2.3925829463962985e-23,2.3925829463962985e-23,4.0901288045876417e-13
153967350563064.28,2.706681205081396e-23,2.706681205081396e-23,4.625323829106179e-13
170160238175456.78,3.047583789380467e-23,3.047583789380467e-23,5.205883760644707e-13
188056146644340.38,3.4214607888636497e-23,3.4214607888636497e-23,5.842323269414246e-13
207834184236694.53,3.820851845376975e-23,3.820851845376975e-23,6.521816793311781e-13
229692296200370.94,4.253133688213157e-23,4.253133688213157e-23,7.256939591376518e-13
253849245866667.44,4.7060447311807477e-23,4.7060447311807477e-23,8.026687220403685e-13
280546804107275.56,5.1886410719782713e-23,5.1886410719782713e-23,8.846504609923797e-13
310052169058426.44,5.682127189519884e-23,5.682127189519884e-23,9.684278378089228e-13
342660640329647.56,6.198099450054779e-23,6.198099450054779e-23,1.0559791715053455e-12
378698574461505.8,6.709321323674137e-23,6.709321323674137e-23,1.1426605887270308e-12
418526651211561.1,7.231382210721873e-23,7.231382210721873e-23,1.2311313218787787e-12
462543483358607.25,7.726727590497448e-23,7.726727590497448e-23,1.314999492932754e-12
511189606153339.8,8.21717233059485e-23,8.21717233059485e-23,1.397983860797495e-12
564951886343216.1,8.653296190237963e-23,8.653296190237963e-23,1.471685854728031e-12
624368394898500.9,9.066219483358972e-23,9.066219483358972e-23,1.5414046206635779e-12
690033792207394.4,9.393806954404901e-23,9.393806954404901e-23,1.5965951819680793e-12
762605279637066.5,9.680212674012716e-23,9.680212674012716e-23,1.6447655721963098e-12
842809177025832.5,9.850822334913001e-23,9.850822334913001e-23,1.6732685960008196e-12
931448191936221.6,9.966575577417859e-23,9.966575577417859e-23,1.692450964943828e-12
1029409453422055.8,9.94202093323751e-23,9.94202093323751e-23,1.6878449760576436e-12
1137673390714203.5,9.85751558787661e-23,9.85751558787661e-23,1.6730739476556842e-12
1257323545685850.8,9.619967625843267e-23,9.619967625843267e-23,1.632393490812855e-12
1389557417303759.8,9.329117691223694e-23,9.329117691223694e-23,1.5826895944933154e-12
1535698446600424.2,8.888873963768382e-23,8.888873963768382e-23,1.5077277644875817e-12
1697209262116736.2,8.414197538755847e-23,8.414197538755847e-23,1.426946200764718e-12
1875706318380045.2,7.811676644562041e-23,7.811676644562041e-23,1.324580483113036e-12
2072976073924366.8,7.202684590425912e-23,7.202684590425912e-23,1.2211297902938354e-12
2290992870767843.5,6.502509177527808e-23,6.502509177527808e-23,1.1023143309240396e-12
2531938694291264.0,5.82677402389156e-23,5.82677402389156e-23,9.876423869864533e-13
2798225011281132.5,5.104788558636918e-23,5.104788558636918e-23,8.652119988963161e-13
3092516904699807.5,4.434130032387973e-23,4.434130032387973e-23,7.514714284113858e-13
3417759746731544.5,3.761388741293137e-23,3.761388741293137e-23,6.374387203582142e-13
3777208677057292.5,3.157645329646891e-23,3.157645329646891e-23,5.350851453606578e-13
4174461181386716.5,2.5867183318315443e-23,2.5867183318315443e-23,4.383317118948151e-13
4613493096304308.0,2.0913012858889917e-23,2.0913012858889917e-23,3.5436169373314007e-13
5098698400778293.0,1.648962730366063e-23,1.648962730366063e-23,2.7940684993517443e-13
5634933192578981.0,1.2785546609575153e-23,1.2785546609575153e-23,2.1663326063723952e-13
6227564289737449.0,9.661520044705386e-24,9.661520044705386e-24,1.636978276244885e-13
6882522943464266.0,7.14880311697684e-24,7.14880311697684e-24,1.2111812931599841e-13
7606364200105108.0,5.148098485165382e-24,5.148098485165382e-24,8.721775873047413e-14
8406332506247898.0,3.613166869885883e-24,3.613166869885883e-24,6.120945648587245e-14
9290434213579148.0,2.4619630402932477e-24,2.4619630402932477e-24,4.170436927228654e-14
1.026751770914267e+16,1.6265775349302616e-24,1.6265775349302616e-24,2.7550961893568026e-14
1.134736197297119e+16,1.039171545018998e-24,1.039171545018998e-24,1.759964319754003e-14
1.2540774449405258e+16,6.398048752256686e-25,6.398048752256686e-25,1.0834606337949505e-14
1.3859699211628828e+16,3.786377937601572e-25,3.786377937601572e-25,6.411074882977715e-15
1.5317336501968156e+16,2.142643207672176e-25,2.142643207672176e-25,3.627417736812918e-15
1.692827484435377e+16,1.1557841561281067e-25,1.1557841561281067e-25,1.956431386661772e-15
1.8708637051171376e+16,5.903430831807235e-26,5.903430831807235e-26,9.991827930027206e-16
2.067624158578714e+16,2.8447747992873615e-26,2.8447747992873615e-26,4.814576092353282e-16
2.285078089571825e+16,1.2835755105793635e-26,1.2835755105793635e-26,2.1723916469210543e-16
2.5254018501266396e+16,5.4025670954118656e-27,5.4025670954118656e-27,9.144755938292048e-17
2.7910006812143964e+16,2.1043060637282687e-27,2.1043060637282687e-27,3.562985058175774e-17
3.0845327852074764e+16,7.562304713434357e-28,7.562304713434357e-28,1.2811215075203687e-17
3.40893593006218e+16,2.4872359703938233e-28,2.4872359703938233e-28,4.217211000090593e-18
3.76745685148788e+16,7.477843939083367e-29,7.477843939083367e-29,1.2694634003687597e-18
4.163683747369248e+16,2.0400126636300394e-29,2.0400126636300394e-29,3.469164483079613e-19
4.6015821896567224e+16,5.05325566267396e-30,5.05325566267396e-30,8.612280148029019e-20
5.085534813143477e+16,1.130108246471152e-30,1.130108246471152e-30,1.9312293886589888e-20
5.620385178347441e+16,2.2796991499953557e-31,2.2796991499953557e-31,3.9073670026513635e-21
6.211486247493002e+16,4.120890414705007e-32,4.120890414705007e-32,7.084776511731222e-22
6.864753958756097e+16,6.610041754502459e-33,6.610041754502459e-33,1.1396933683589937e-22
7.586726434961909e+16,9.284168080818025e-34,9.284168080818025e-34,1.6048098243413154e-23
8.384629419315651e+16,1.1190790174416426e-34,1.1190790174416426e-34,1.938690207079155e-24
9.266448593069142e+16,1.1360288397440638e-35,1.1360288397440638e-35,1.9721716334831437e-25
1.0241009498903032e+17,9.50146178911616e-37,9.50146178911616e-37,1.653187598472279e-26
1.1318065869924107e+17,6.433477301197708e-38,6.433477301197708e-38,1.1223654164535923e-27
1.2508397248304653e+17,3.458126566255174e-39,3.458126566255174e-39,6.052203033865881e-29
1.3823916870563778e+17,1.4509014096221652e-40,1.4509014096221652e-40,2.5485362684407215e-30
1.527779089924237e+17,4.627949677861626e-42,4.627949677861626e-42,8.159289859521128e-32
1.6884570194283488e+17,1.0918656017516883e-43,1.0918656017516883e-43,1.931453023863943e-33
1.8660335942929027e+17,1.82010838304561e-45,1.82010838304561e-45,3.227897006651178e-35
2.0622860605646835e+17,2.0520552226852191e-47,2.0520552226852191e-47,3.645024646956194e-37
2.279178578888885e+17,1.4686998893792307e-49,1.4686998893792307e-49,2.610608239511288e-39
2.5188818824889734e+17,6.322035754442794e-52,6.322035754442794e-52,1.1236772360459268e-41
2.7837950025944586e+17,1.5209079526578089e-54,1.5209079526578089e-54,2.701833343072448e-44
3.076569278751722e+17,1.9233821737791517e-57,1.9233821737791517e-57,3.413915316934582e-47
3.4001348943213664e+17,1.1778064097287124e-60,1.1778064097287124e-60,2.08851914797108e-50
3.757730202738195e+17,3.252503705385071e-64,3.252503705385071e-64,5.761332595921748e-54
4.1529341380407514e+17,3.6854047030038184e-68,3.6854047030038184e-68,6.521381917074183e-58
4.5897020340462016e+17,1.572245981431743e-72,1.572245981431743e-72,2.7792158193351173e-62
5.072405210660516e+17,2.2585222621596442e-77,2.2585222621596442e-77,3.988391156990282e-67
5.605874723517369e+17,9.825553784794609e-83,9.825553784794609e-83,1.7334331100232725e-72
6.195449714806766e+17,1.1322045025497001e-88,1.1322045025497001e-88,1.995613006238475e-78
6.847030849204489e+17,3.0308025040562676e-95,3.0308025040562676e-95,5.337223092661978e-85
7.567139369707617e+17,1.603354778030061e-102,1.603354778030061e-102,2.821083000096797e-92
8.362982364426156e+17,1.4254415399705298e-110,1.4254415399705298e-110,2.5059225819958227e-100
9.242524897543286e+17,1.7512478612310233e-119,1.7512478612310233e-119,3.076220215921758e-109
1.021456972635496e+18,2.4346796955764634e-129,2.4346796955764634e-129,4.2733185788065023e-119
1.1288845402223404e+18,3.0216178454424713e-140,3.0216178454424713e-140,5.299486097148081e-130
1.2476103637189307e+18,2.617885408191314e-152,2.617885408191314e-152,4.5879254791023196e-142
1.3788226910719455e+18,1.1872937056221242e-165,1.1872937056221242e-165,2.0792675419517154e-155
1.5238347393555136e+18,2.0837550639220457e-180,2.0837550639220457e-180,3.6465724770284286e-170
1.6840978378891008e+18,9.974433174633072e-197,9.974433174633072e-197,1.7443172207298539e-186
1.8612159536291133e+18,8.987636243628953e-215,8.987636243628953e-215,1.570652445172736e-204
2.0569617442093248e+18,9.961192088015672e-235,9.961192088015672e-235,1.7396219202220537e-224
2.273294299294308e+18,8.618555624731945e-257,8.618555624731945e-257,1.504126118938867e-246
2.512378747807221e+18,3.467684939048597e-281,3.467684939048597e-281,6.047916055682699e-271
2.776607927267857e+18,3.717143997906417e-308,3.717143997906417e-308,6.4787063230178145e-298
3.0686263321147423e+18,0.0,0.0,0.0
3.39135658069435e+18,0.0,0.0,0.0
3.7480286658078694e+18,0.0,0.0,0.0
4.1422122815647186e+18,0.0,0.0,0.0
4.5778525500811095e+18,0.0,0.0,0.0
5.059309505588092e+18,0.0,0.0,0.0
5.59140173111963e+18,0.0,0.0,0.0
6.179454584511256e+18,0.0,0.0,0.0
6.82935349637106e+18,0.0,0.0,0.0
7.547602873447549e+18,0.0,0.0,0.0
8.341391196918436e+18,0.0,0.0,0.0
