Energy,Neutrino Flux Best Fit,Neutrino Flux Min,Neutrino Flux Max
10223880597.014925,5.004213856565527e-31,5.004213856565527e-31,2.4370505740856805e-24
11299135505.698786,6.11169628693793e-31,6.11169628693793e-31,2.976394180003047e-24
12487475960.294273,7.464197969079383e-31,7.464197969079383e-31,3.635062091014484e-24
13800795271.486002,9.115895014358667e-31,9.115895014358667e-31,4.439438059449871e-24
15252237580.362242,1.1132928946187845e-30,1.1132928946187845e-30,5.4217329909285875e-24
16856329409.396832,1.359604360330698e-30,1.359604360330698e-30,6.621269116030283e-24
18629125048.76864,1.660380061328186e-30,1.660380061328186e-30,8.08604592573678e-24
20588367233.093678,2.027649925097559e-30,2.027649925097559e-30,9.874649142506871e-24
22753664716.676723,2.4760953349238343e-30,2.4760953349238343e-30,1.2058577076046206e-23
25146688524.515083,3.0236310284635442e-30,3.0236310284635442e-30,1.4725074470060957e-23
27791388843.200684,3.692113594482705e-30,3.692113594482705e-30,1.7980582882781386e-23
30714234722.437416,4.508203616574261e-30,4.508203616574261e-30,2.1954939329379466e-23
33944478986.187096,5.504414071823249e-30,5.504414071823249e-30,2.680648198767887e-23
37514451004.763916,6.720384196603855e-30,6.720384196603855e-30,3.272825393137077e-23
41459880258.03884,8.204425834512384e-30,8.204425834512384e-30,3.995553385509322e-23
45820253928.0832,1.0015398439829803e-29,1.0015398439829803e-29,4.8774967357684043e-23
50639212100.15901,1.2224976879508475e-29,1.2224976879508475e-29,5.953561116346467e-23
55964984527.36018,1.4920362551171928e-29,1.4920362551171928e-29,7.266213631349901e-23
61850873330.19206,1.8207639069735835e-29,1.8207639069735835e-29,8.867117040318796e-23
68355786462.108955,2.2215729625055154e-29,2.2215729625055154e-29,1.0819057000418166e-22
75544827280.11188,2.7101222511144354e-29,2.7101222511144354e-29,1.3198292110280226e-22
83489946121.02748,3.3054070088835793e-29,3.3054070088835793e-29,1.6097329323252945e-22
92270660404.6623,4.0304494188489786e-29,4.0304494188489786e-29,1.9628286902352488e-22
101974850470.86694,4.913108421187752e-29,4.913108421187752e-29,2.392683823320511e-22
112699639115.51491,5.986947675443673e-29,5.986947675443673e-29,2.915643887834123e-22
124552363628.08774,7.291716630719133e-29,7.291716630719133e-29,3.5510669640793846e-22
137651650059.34564,8.874416631731485e-29,8.874416631731485e-29,4.321842867549533e-22
152128600470.7148,1.0790572168642188e-28,1.0790572168642188e-28,5.25501226888332e-22
168128105047.78333,1.3105645895715742e-28,1.3105645895715742e-28,6.382455837803384e-22
185810292209.97763,1.5897174005272756e-28,1.5897174005272756e-28,7.741934194069288e-22
205352131229.60526,1.9256729951655826e-28,1.9256729951655826e-28,9.378044288001354e-22
226949203399.81372,2.329305834641817e-28,2.329305834641817e-28,1.1343745642573403e-21
250817659477.90903,2.8134933016811744e-28,2.8134933016811744e-28,1.3701752296912972e-21
277196382994.7859,3.3934955908567797e-28,3.3934955908567797e-28,1.652638294423942e-21
306349381081.59644,4.087413962067952e-28,4.087413962067952e-28,1.9905792716354234e-21
338568426741.8542,4.916776131443671e-28,4.916776131443671e-28,2.394482413550512e-21
374175979013.7227,5.9063542499425535e-28,5.9063542499425535e-28,2.8764121030960968e-21
413528410248.45026,7.081707838306341e-28,7.081707838306341e-28,3.448816368072972e-21
457019572804.6429,8.482475116589811e-28,8.482475116589811e-28,4.130999439659279e-21
505084740855.0474,1.014423079530636e-27,1.014423079530636e-27,4.940287043375327e-21
558204966756.7732,1.2122433202890588e-27,1.2122433202890588e-27,5.903688074403327e-21
616911895584.9697,1.4466760185434058e-27,1.4466760185434058e-27,7.04539693140958e-21
681793086015.4288,1.7253956555566274e-27,1.7253956555566274e-27,8.402789468845157e-21
753497890809.3002,2.0552874417047477e-27,2.0552874417047477e-27,1.0009398626520444e-20
832743955753.7787,2.447238942146183e-27,2.447238942146183e-27,1.1918248585327037e-20
920324402102.3499,2.9106516182590363e-27,2.9106516182590363e-27,1.417512746762808e-20
1017115764398.876,3.460815225571003e-27,3.460815225571003e-27,1.685449906899849e-20
1124086763129.9197,4.110757276274848e-27,4.110757276274848e-27,2.001981185769842e-20
1242308000004.9768,4.880813178634327e-27,4.880813178634327e-27,2.3770103680347876e-20
1372962672898.2214,5.788817095676517e-27,5.788817095676517e-27,2.819223360629085e-20
1517358417690.522,6.863374734186246e-27,6.863374734186246e-27,3.3425518019312674e-20
1676940395528.8472,8.128733882073762e-27,8.128733882073762e-27,3.958805357260636e-20
1853305756484.755,9.623310416132276e-27,9.623310416132276e-27,4.686693586312866e-20
2048219624369.1404,1.1379267850412562e-26,1.1379267850412562e-26,5.541881597589941e-20
2263632762684.6,1.3448829360115915e-26,1.3448829360115915e-26,6.549803633062016e-20
2501701098522.253,1.5874709929131512e-26,1.5874709929131512e-26,7.731264060337113e-20
2764807299804.6963,1.8727654318944807e-26,1.8727654318944807e-26,9.12071790627822e-20
3055584621827.407,2.2064145791494042e-26,2.2064145791494042e-26,1.0745675675654798e-19
3376943261762.828,2.5979233029137514e-26,2.5979233029137514e-26,1.2652429543624703e-19
3732099484891.7954,3.054733311209213e-26,3.054733311209213e-26,1.4877225171538685e-19
4124607814067.5156,3.58962625122445e-26,3.58962625122445e-26,1.7482314272620548e-19
4558396604574.988,4.212394181841705e-26,4.212394181841705e-26,2.051539063072572e-19
5037807360431.054,4.940052190351087e-26,4.940052190351087e-26,2.405932517135304e-19
5567638185615.846,5.784902455083667e-26,5.784902455083667e-26,2.817403872875665e-19
6153191805110.094,6.768972180571964e-26,6.768972180571964e-26,3.2966814713686554e-19
6800328636349.072,7.907733125533157e-26,7.907733125533157e-26,3.8513013568168583e-19
7515525442250.024,9.229780005685584e-26,9.229780005685584e-26,4.495190733170919e-19
8305940152832.346,1.075414373237929e-25,1.075414373237929e-25,5.237619460313373e-19
9179483504187.113,1.2517574204220628e-25,1.2517574204220628e-25,6.096486997835235e-19
10144898211782.73,1.4543005084772776e-25,1.4543005084772776e-25,7.082964526767995e-19
11211846470499.91,1.6877316930826402e-25,1.6877316930826402e-25,8.219886073464036e-19
12391006657125.605,1.9547567469813766e-25,1.9547567469813766e-25,9.520432120795217e-19
13694180203136.959,2.2613051781472463e-25,2.2613051781472463e-25,1.10134838530464e-18
15134409707394.242,2.610466406176905e-25,2.610466406176905e-25,1.2714091243750047e-18
16726109470853.88,3.0096576587208626e-25,3.0096576587208626e-25,1.4658382396278803e-18
18485209759737.363,3.4622095270844634e-25,3.4622095270844634e-25,1.6862583204394957e-18
20429316240989.87,3.9772144942569127e-25,3.9772144942569127e-25,1.9370982584323634e-18
22577886185712.508,4.558027452191026e-25,4.558027452191026e-25,2.2199926474401816e-18
24952423204071.387,5.215762174922174e-25,5.215762174922174e-25,2.5403550487415155e-18
27576692460655.66,5.953467623952598e-25,5.953467623952598e-25,2.8996712585758192e-18
30476958524232.594,6.7845990265102115e-25,6.7845990265102115e-25,3.3044955125252356e-18
33682248232379.56,7.7113700380642665e-25,7.7113700380642665e-25,3.7559070132714914e-18
37224641201830.83,8.74995790342202e-25,8.74995790342202e-25,4.261786103553096e-18
41139590892063.945,9.900977979349622e-25,9.900977979349622e-25,4.82243379564095e-18
45466279435438.84,1.1183760772450646e-24,1.1183760772450646e-24,5.447266665655388e-18
50248009785147.87,1.2596237150940629e-24,1.2596237150940629e-24,6.135278492441402e-18
55532639105725.97,1.4161572949407082e-24,1.4161572949407082e-24,6.897754367009397e-18
61373057743638.875,1.5873709121605904e-24,1.5873709121605904e-24,7.731744941173702e-18
67827718571647.08,1.7760070705945284e-24,1.7760070705945284e-24,8.650610380150102e-18
74961222004803.83,1.9808355888587405e-24,1.9808355888587405e-24,9.648360809767765e-18
82844962543121.47,2.2050861916364006e-24,2.2050861916364006e-24,1.0740730130991108e-17
91557843311724.14,2.446621759924624e-24,2.446621759924624e-24,1.1917310952308577e-17
101187065749844.62,2.709228336971375e-24,2.709228336971375e-24,1.3196547547742478e-17
111829002352136.66,2.989485857623724e-24,2.989485857623724e-24,1.4561783202807744e-17
123590161196994.58,3.291807463561857e-24,3.291807463561857e-24,1.6034517394819436e-17
136588251915199.75,3.6110066720877444e-24,3.6110066720877444e-24,1.7589488620050483e-17
150953363767469.34,3.9522234974236165e-24,3.9522234974236165e-24,1.9251737622264747e-17
166829267621501.25,4.307932824501341e-24,4.307932824501341e-24,2.098461012597058e-17
184374854859142.38,4.684163922864605e-24,4.684163922864605e-24,2.28174791741238e-17
203765727614742.6,5.070387494497814e-24,5.070387494497814e-24,2.4699054764878867e-17
225195956260337.34,5.4737646462965726e-24,5.4737646462965726e-24,2.6664224006603808e-17
248880021727160.72,5.8800380899161316e-24,5.8800380899161316e-24,2.8643534125906446e-17
275054962102893.28,6.297881770280945e-24,6.297881770280945e-24,3.067924240520297e-17
303982744988516.9,6.708597781537446e-24,6.708597781537446e-24,3.268026031531013e-17
335952889358114.6,7.12295485220027e-24,7.12295485220027e-24,3.4699050597547826e-17
371285363162073.8,7.517217191285493e-24,7.517217191285493e-24,3.6619977657289264e-17
410333785673879.94,7.905096333762244e-24,7.905096333762244e-24,3.850984140456222e-17
453488966630657.8,8.257472257543893e-24,8.257472257543893e-24,4.022676996545975e-17
501182817588380.56,8.59212936127219e-24,8.59212936127219e-24,4.185740661154698e-17
553892674637890.2,8.874578844235746e-24,8.874578844235746e-24,4.3233716574709186e-17
612146075744932.9,9.127981591508344e-24,9.127981591508344e-24,4.4468538974022676e-17
676526040527433.4,9.3128979403899e-24,9.3128979403899e-24,4.536971047551943e-17
747676905311786.1,9.459078802000267e-24,9.459078802000267e-24,4.6082180501671184e-17
826310771867385.4,9.52293345791232e-24,9.52293345791232e-24,4.6393552944324625e-17
913214634360475.0,9.541563439760436e-24,9.541563439760436e-24,4.6484596318339055e-17
1009258255856282.6,9.468396450581352e-24,9.468396450581352e-24,4.612837963051809e-17
1115402873200116.4,9.347861622496582e-24,9.347861622496582e-24,4.5541381637521954e-17
1232710817398787.2,9.131999855683121e-24,9.131999855683121e-24,4.448990761737836e-17
1362356145786399.2,8.871583858309327e-24,8.871583858309327e-24,4.322135490709284e-17
1505636392384755.2,8.519354648068032e-24,8.519354648068032e-24,4.1505434654383044e-17
1663985554059965.2,8.130524433609906e-24,8.130524433609906e-24,3.9611185925245545e-17
1838988442445069.8,7.661041858050089e-24,7.661041858050089e-24,3.732394508473293e-17
2032396545267522.2,7.167895158727979e-24,7.167895158727979e-24,3.492141229575637e-17
2246145555827081.5,6.612695016788356e-24,6.612695016788356e-24,3.22165102245788e-17
2482374746064950.5,6.05101304648251e-24,6.05101304648251e-24,2.94800378979347e-17
2743448377116403.0,5.4517503076447104e-24,5.4517503076447104e-24,2.6560441431334296e-17
3031979361630884.5,4.865641006091807e-24,4.865641006091807e-24,2.3704943726639202e-17
3350855414680020.0,4.269044896770018e-24,4.269044896770018e-24,2.0798338517260697e-17
3703267954980671.5,3.704693805832891e-24,3.704693805832891e-24,1.8048846051091736e-17
4092744045686113.0,3.1552006802130167e-24,3.1552006802130167e-24,1.5371737554187428e-17
4523181694419560.0,2.653015257244385e-24,2.653015257244385e-24,1.292512203241196e-17
4998888865844636.0,2.1852137738734725e-24,2.1852137738734725e-24,1.0646027429985558e-17
5524626597223647.0,1.773040476404584e-24,1.773040476404584e-24,8.637956383841824e-18
6105656648478797.0,1.4064176540747823e-24,1.4064176540747823e-24,6.851810482724922e-18
6747794163653992.0,1.0959606468736241e-24,1.0959606468736241e-24,5.33930207588973e-18
7457465870830976.0,8.33234617179478e-25,8.33234617179478e-25,4.05933957395871e-18
8241774402984090.0,6.202830945853958e-25,6.202830945853958e-25,3.021873517731011e-18
9108569383518296.0,4.495813123136611e-25,4.495813123136611e-25,2.1902457635771826e-18
1.0066525987938648e+16,3.1781614890333453e-25,3.1781614890333453e-25,1.5483119666877292e-18
1.1125231767922518e+16,2.1822238572377634e-25,2.1822238572377634e-25,1.0631133409953616e-18
1.2295282606759284e+16,1.4549273467454564e-25,1.4549273467454564e-25,7.08792189960565e-19
1.3588388766511718e+16,9.393474042916537e-26,9.393474042916537e-26,4.576155872839456e-19
1.5017492088254568e+16,5.86140434123288e-26,5.86140434123288e-26,2.8554372403282827e-19
1.659689551837007e+16,3.528852358386843e-26,3.528852358386843e-26,1.7190957074510716e-19
1.8342406257242644e+16,2.0434935541775066e-26,2.0434935541775066e-26,9.95484693374389e-20
2.027149396303335e+16,1.1369172177523467e-26,1.1369172177523467e-26,5.538393524334703e-20
2.240346559389055e+16,6.0534077944459894e-27,6.0534077944459894e-27,2.948814319376714e-20
2.4759658638476196e+16,3.0807352724389103e-27,3.0807352724389103e-27,1.5006977187570616e-20
2.736365466872437e+16,1.491498091439064e-27,1.491498091439064e-27,7.26527259450786e-21
3.0241515352139076e+16,6.853335862442244e-28,6.853335862442244e-28,3.33826575178019e-21
3.3422043285722324e+16,2.970587783290032e-28,2.970587783290032e-28,1.4469406142604727e-21
3.693707026204582e+16,1.2094208212211142e-28,1.2094208212211142e-28,5.890816170250977e-22
4.082177585252987e+16,4.590216191639669e-29,4.590216191639669e-29,2.2357414065586303e-22
4.511503949641874e+16,1.614191972278359e-29,1.614191972278359e-29,7.862037739109434e-23
4.985982961927618e+16,5.2133761984572896e-30,5.2133761984572896e-30,2.5391697975365696e-23
5.510363367543079e+16,1.5354382084295444e-30,1.5354382084295444e-30,7.478233230943789e-24
6.089893341838012e+16,4.085881899491054e-31,4.085881899491054e-31,1.989974364584151e-24
6.730373015581886e+16,9.752455090975799e-32,9.752455090975799e-32,4.749755877927971e-25
7.438212524622195e+16,2.0701523256510871e-32,2.0701523256510871e-32,1.0082205293919568e-25
8.22049616467849e+16,3.877827522454808e-33,3.877827522454808e-33,1.888588796469292e-26
9.085053293355062e+16,6.355763310440463e-34,6.355763310440463e-34,3.0953648198729492e-27
1.0040536688983416e+17,9.010230777837679e-35,9.010230777837679e-35,4.388081942730626e-28
1.1096509150536002e+17,1.0906456723070016e-35,1.0906456723070016e-35,5.311496336881125e-29
1.2263539205332715e+17,1.1035433628886058e-36,1.1035433628886058e-36,5.374241549632715e-30
1.3553306882414274e+17,9.132117812255945e-38,9.132117812255945e-38,4.447279671171209e-31
1.4978720610198746e+17,5.97932797532013e-39,5.97932797532013e-39,2.9118661504244535e-32
1.6554046408371997e+17,3.007110487005926e-40,3.007110487005926e-40,1.4644194730136933e-33
1.8295050667007315e+17,1.1141138605172631e-41,1.1141138605172631e-41,5.425548981967578e-35
2.0219157941896992e+17,2.9371342222575024e-43,2.9371342222575024e-43,1.4303312978690804e-36
2.2345625345362854e+17,5.250728524603046e-45,5.250728524603046e-45,2.5570061674045564e-38
2.4695735277909072e+17,6.115287867758419e-47,6.115287867758419e-47,2.978028889416946e-40
2.7293008429639968e+17,4.390635135354195e-49,4.390635135354195e-49,2.138156347758272e-42
3.0163439183231526e+17,1.8527650933020307e-51,1.8527650933020307e-51,9.022623240633673e-45
3.3335755774451e+17,4.3092242902141213e-54,4.3092242902141213e-54,2.0985149163631475e-47
3.6841707813995635e+17,5.212540917484076e-57,5.212540917484076e-57,2.5384176854699834e-50
4.071638404826823e+17,3.040227571393331e-60,3.040227571393331e-60,1.480540906860757e-53
4.499856353934532e+17,7.961596853413066e-64,7.961596853413066e-64,3.8771742280984436e-57
4.973110377886352e+17,8.5538601441784e-68,8.5538601441784e-68,4.165605426138054e-61
5.496136962020198e+17,3.4528490330541887e-72,3.4528490330541887e-72,1.6814908537538298e-65
6.074170732185372e+17,4.698462587470753e-77,4.698462587470753e-77,2.2880928634040167e-70
6.712996844637522e+17,1.9333040630569775e-82,1.9333040630569775e-82,9.414973084705229e-76
7.419008885826986e+17,2.1101229024025325e-88,2.1101229024025325e-88,1.027608617967251e-81
8.199272861560781e+17,5.3427984672724134e-95,5.3427984672724134e-95,2.601895906395944e-88
9.061597915963884e+17,2.6775304547168674e-102,2.6775304547168674e-102,1.303937326878708e-95
1.0014614488018194e+18,2.2519036100080817e-110,2.2519036100080817e-110,1.0966634428867418e-103
1.1067860687896727e+18,2.621360668711979e-119,2.621360668711979e-119,1.2765905854786562e-112
1.2231877757576212e+18,3.4483226921659526e-129,3.4483226921659526e-129,1.679322730753246e-122
1.3518315571129567e+18,4.055887524807869e-140,4.055887524807869e-140,1.9752113839002732e-133
1.4940049230581606e+18,3.3257355525261006e-152,3.3257355525261006e-152,1.619634157510228e-145
1.651130792425727e+18,1.4298283617315245e-165,1.4298283617315245e-165,6.963293163747116e-159
1.8247817337281083e+18,2.375585089012071e-180,2.375585089012071e-180,1.15691917663071e-173
2.0166957039519685e+18,1.078222373246609e-196,1.078222373246609e-196,5.251005051502286e-190
2.2287934426158147e+18,9.199568840529807e-215,9.199568840529807e-215,4.480261526844421e-208
2.463197695176698e+18,9.6700753225121e-235,9.6700753225121e-235,4.7094216230301347e-228
2.722254458180254e+18,7.924083197566536e-257,7.924083197566536e-257,3.859123597557471e-250
3.00855645878259e+18,3.024397575283529e-281,3.024397575283529e-281,1.4729245515612254e-274
3.324969103635179e+18,3.0710335613010557e-308,3.0710335613010557e-308,1.4956441353002455e-301
3.6746591568376586e+18,0.0,0.0,0.0
4.061126433977352e+18,0.0,0.0,0.0
4.4882388294600376e+18,0.0,0.0,0.0
4.960271027697109e+18,0.0,0.0,0.0
5.481947285584058e+18,0.0,0.0,0.0
6.058488714451247e+18,0.0,0.0,0.0
6.69566553470102e+18,0.0,0.0,0.0
7.399854826113009e+18,0.0,0.0,0.0
8.178104351801808e+18,0.0,0.0,0.0
9.038203094599266e+18,0.0,0.0,0.0
9.988759211812446e+18,0.0,0.0,0.0
