Energy,Neutrino Flux Best Fit,Neutrino Flux Min,Neutrino Flux Max
5563636363.636364,4.8241232576998737e-23,4.817830919478951e-31,7.434027471879943e-23
6148769107.839059,5.892173096782604e-23,5.884487889153684e-31,9.079903926249407e-23
6795440799.945673,7.196682665876726e-23,7.187296308237822e-31,1.1090167327648968e-22
7510123547.604672,8.790001044933498e-23,8.778537043681716e-31,1.3545488132265065e-22
8299970135.967795,1.0736066013290235e-22,1.0722064575903443e-30,1.6544395085864983e-22
9172885615.167986,1.3112969180008786e-22,1.3095868795946991e-30,2.0207228107598351e-22
10137606416.718105,1.6016088768073364e-22,1.5995203721439336e-30,2.468096593023918e-22
11203787790.653925,1.9561915613995484e-22,1.9536408531407465e-30,3.0145121986703114e-22
12382100438.52173,2.3892725691998527e-22,2.3861574032436702e-30,3.681894479125048e-22
13684337309.34594,2.91822863400765e-22,2.9144241494016702e-30,4.497021125375748e-22
15123531627.426687,3.564282469894128e-22,3.5596362072763966e-30,5.492596505946576e-22
16714087333.229248,4.353353731283616e-22,4.347679542030753e-30,6.708562996965074e-22
18471923242.861523,5.317098137885695e-22,5.310168753121512e-30,8.193702272538415e-22
20414632368.93616,6.49417631976871e-22,6.485714286170167e-30,1.0007590590951412e-21
22561657997.354015,7.931803092865242e-22,7.921469718905608e-30,1.2222986219439212e-21
24934488282.244507,9.687639037944183e-22,9.675020917586611e-30,1.4928744341176962e-21
27556871306.63464,1.183209971713204e-21,1.1816692306639746e-29,1.8233375529393127e-21
30455052761.245884,1.4451173037267997e-21,1.4432360662572484e-29,2.2269387247926647e-21
33658038620.188396,1.764986289558247e-21,1.76268943821277e-29,2.7198590452470067e-21
37197885442.499214,2.155638782216001e-21,2.1528346850247963e-29,3.3218569577216016e-21
41110021204.95962,2.632730877420321e-21,2.629307779895846e-29,4.057058431228197e-21
45433599877.19457,3.2153782280006742e-21,3.211199869723758e-29,4.954920543351028e-21
50211893287.76076,3.926919501699301e-21,3.9218197889157284e-29,6.051407934096053e-21
55492724203.15101,4.7958471654957015e-21,4.7896237095486937e-29,7.390427088415422e-21
61328944954.11511,5.856937826680899e-21,5.849344154933014e-29,9.025568082225273e-21
67778966399.55024,7.15260184550888e-21,7.143338268443403e-29,1.1022184004068496e-20
74907342522.00941,8.734557829453823e-21,8.723260448113078e-29,1.3459971099520512e-20
82785416505.65616,1.0665877892965469e-20,1.06521053809667e-28,1.6436120171347246e-20
91492034762.8309,1.3023477437720332e-20,1.3006695161230307e-28,2.0069152871598245e-20
101114336055.44688,1.5901180130442573e-20,1.5880740877445658e-28,2.4503644361611482e-20
111748623609.00777,1.941342598751153e-20,1.9388546848487912e-28,2.991593668979511e-20
123501328947.6571,2.3699840822828883e-20,2.366957509279449e-28,3.6521179545329256e-20
136490077096.64478,2.8930766036605973e-20,2.8893969499465427e-28,4.458185039763474e-20
150844863813.11484,3.531402698055749e-20,3.526931726427532e-28,5.441818304293466e-20
166709356627.33618,4.310320077540715e-20,4.304890832040008e-28,6.642090640901983e-20
184242332715.6336,5.260772261474367e-20,5.254183138315347e-28,8.106681605117881e-20
203619267995.73572,6.420475213267834e-20,6.412483207608347e-28,9.893705433868088e-20
225034093348.73865,7.835245300440362e-20,7.8255593090430555e-28,1.2073755959733116e-19
248701135544.54648,9.561501540540206e-20,9.54976814019776e-28,1.4733766142754848e-19
274857262296.2225,1.1667475250955822e-19,1.1653271511296556e-27,1.797886499216231e-19
303764252911.67523,1.423713026204632e-19,1.4219942994193066e-27,2.1938425686318993e-19
335711418268.95953,1.7372091098797964e-19,1.7351306745141884e-27,2.676902598119417e-19
371018496336.7836,2.1197281134681973e-19,2.117215595211615e-27,3.2663146940631827e-19
410038852219.56934,2.586403243776371e-19,2.5833678231419354e-27,3.9853948938261434e-19
453163014754.1864,3.1558383191056674e-19,3.152172294730317e-27,4.862807410637464e-19
500822585053.8123,3.8505615278978144e-19,3.8461365108587464e-27,5.93326120059634e-19
553494556116.9412,4.698270835360023e-19,4.692931158834134e-27,7.239431776141723e-19
611706086733.6327,5.732516309471717e-19,5.726076642291871e-27,8.833008441925505e-19
676039777467.871,6.994478596803196e-19,6.98671478712231e-27,1.0777438646471309e-18
747139501519.8231,8.534112299812627e-19,8.524757846396183e-27,1.3149684019384295e-18
825716848825.2444,1.041275279393181e-18,1.040148527075594e-26,1.604424303243036e-18
912558247886.7267,1.2704778945363455e-18,1.2691215671682997e-26,1.957570377435012e-18
1008532836614.4778,1.550145649083457e-18,1.5485135208021192e-26,2.3884674940948566e-18
1114601160950.6602,1.8913502418436515e-18,1.8893875706437754e-26,2.9141723367698026e-18
1231824788336.0232,2.3076794166800436e-18,2.3053201244958748e-26,3.555618458281091e-18
1361376932233.6626,2.815618250434768e-18,2.812784247115406e-26,4.3382016533207736e-18
1504554194043.6863,3.435399357923293e-18,3.4319964459638247e-26,5.293092054885196e-18
1662789539925.8264,4.1915722537209685e-18,4.187489346400589e-26,6.4581081543714166e-18
1837666642406.4104,5.11426551750793e-18,5.1093687233397665e-26,7.879664712212525e-18
2030935730305.2844,6.240044986244479e-18,6.234176745018787e-26,9.614090110212725e-18
2244531105614.1265,7.613783838161565e-18,7.606754366023842e-26,1.1730512538607314e-17
2480590502640.914,9.289956594675736e-18,9.281543044201094e-26,1.431284624874121e-17
2741476483173.39,1.13353951808155e-17,1.132532936035971e-25,1.7464045196814725e-17
3029800081791.5347,1.3831235303688977e-17,1.381920327019483e-25,2.1309090450450395e-17
3348446937979.221,1.6876987647386556e-17,1.6862612115555394e-25,2.6001273818232877e-17
3700606176574.086,2.05935269026564e-17,2.057636747779958e-25,3.172678591481091e-17
4089802325600.797,2.512904515266069e-17,2.510857314059414e-25,3.8713905077377114e-17
4519930590932.15,3.066362081190569e-17,3.0639221006676405e-25,4.7240010762892014e-17
4995295840818.691,3.741793210528782e-17,3.738886675427353e-25,5.764503311546155e-17
5520655690457.056,4.56602557022261e-17,4.562566918750825e-25,7.034219649291328e-17
6101268117801.97,5.571919108262966e-17,5.567805843577174e-25,8.58376607576354e-17
6742944087176.886,6.799438113666558e-17,6.794551783972997e-25,1.0474697925283986e-16
7452105707358.035,8.297505912224746e-17,8.291704772206515e-25,1.2782372892332077e-16
8235850506197.658,1.0125644421373632e-16,1.0118765293631179e-24,1.5598468175839121e-16
9102022465068.25,1.2356675636614327e-16,1.234852347874357e-24,1.903515079243541e-16
10059290524064.643,1.5079218046202467e-16,1.5069569312060872e-24,2.322891040174852e-16
11117235343670.19,1.84016190794128e-16,1.8390206962432605e-24,2.834663005271357e-16
12286445191227.018,2.2455755218585246e-16,2.244227539088407e-24,3.4591421034934815e-16
13578621911874.496,2.74027560549173e-16,2.7386845761660965e-24,4.221145965850773e-16
15006698044548.438,3.3438742801767687e-16,3.3419990431725414e-24,5.150879880248496e-16
16584966255177.617,4.0803156064752756e-16,4.078107163157591e-24,6.285222457071725e-16
18329222382488.277,4.97873754542213e-16,4.9761406175536355e-24,7.669049236404953e-16
20256923528067.305,6.07468162495032e-16,6.0716304942336035e-24,9.357100240098064e-16
22387362772902.324,7.411378085682434e-16,7.407799082450249e-24,1.1415953473282513e-15
24741862269021.027,9.041497371346834e-16,9.037303023485194e-24,1.3926729025163336e-15
27343986638755.188,1.1029048886012626e-15,1.1024141833857411e-23,1.6988004895518882e-15
30219778817401.297,1.3451903635633478e-15,1.344616841547769e-23,2.0719711764171056e-15
33398020699670.453,1.6404567097590695e-15,1.6397876206368675e-23,2.52673911320725e-15
36910521198564.26,2.0001777761007084e-15,1.9993980129310923e-23,3.0807751435692114e-15
40792434599667.91,2.4382491517247157e-15,2.4373421821453826e-23,3.755478638883481e-15
45082612397055.77,2.9714939436356057e-15,2.970440201254274e-23,4.576758470413397e-15
49823992132102.69,3.620223553174807e-15,3.619001843832851e-23,5.575894057135296e-15
55064027126829.85,4.408932288944571e-15,4.407517543382059e-23,6.790608056392138e-15
60855161412700.88,5.367060188358459e-15,5.365425579793966e-23,8.26623742383127e-15
67255354608116.336,6.52991413902073e-15,6.528027952142115e-23,1.0057156236551925e-14
74328661997755.16,7.939657377645215e-15,7.93748615117512e-23,1.2228294232621754e-14
82145875619393.67,9.646461105915808e-15,9.643965276922693e-23,1.4856916449228283e-14
90785232774413.23,1.1709691147373712e-14,1.17068296650713e-22,1.8034443129491822e-14
100333199053009.61,1.4198787129902081e-14,1.4195511421126196e-22,2.1867812452367343e-14
110885333710881.3,1.7191900165242365e-14,1.7188160873301886e-22,2.647737203868335e-14
122547246058379.2,2.077179496674295e-14,2.0767533576025215e-22,3.199058108036783e-14
135435652433981.4,2.5000195821532637e-14,2.499535433988046e-22,3.8502490009341785e-14
149679544340637.53,2.991403390255537e-14,2.990854318929668e-22,4.606997937886049e-14
165421479436086.9,3.5564254772787334e-14,3.555804852752025e-22,5.477149924936504e-14
182819008297811.97,4.2016264801579505e-14,4.200926362261223e-22,6.470778154327443e-14
202046251242172.22,4.9370016490170726e-14,4.93621475167511e-22,7.603274032853545e-14
223295640979054.75,5.775054289049471e-14,5.774171762788251e-22,8.893893028868112e-14
246779848543112.06,6.732408241071666e-14,6.731422431658208e-22,1.0368233644741688e-13
272733911776960.28,7.830696316907895e-14,7.82959773351592e-22,1.205961034553236e-13
301417587668905.8,9.094627638024612e-14,9.093408795795833e-22,1.4006071693197596e-13
333117952088191.5,1.0551615712704894e-13,1.0550266981698612e-21,1.6249834269405802e-13
368152272936786.7,1.2221372599103366e-13,1.2219887428229528e-21,1.8821250629920815e-13
406871185473184.9,1.4130036659998742e-13,1.4128405927134968e-21,2.176057406725557e-13
449662201587926.6,1.6112356810792406e-13,1.6110575992817516e-21,2.4813326215391265e-13
496953588152845.6,1.8381038712306014e-13,1.8379100143416835e-21,2.830706079550642e-13
549218653259867.5,2.087819222264953e-13,2.087609460241421e-21,3.2152625938168616e-13
606980483247479.5,2.348286611775666e-13,2.3480604255079224e-21,3.6163768902290155e-13
670817177924616.9,2.6112515159749215e-13,2.6110092627005673e-21,4.021336878648947e-13
741367636387863.5,2.868215003498679e-13,2.8679565405721273e-21,4.4170552446353423e-13
819337951338347.9,3.1142513524832464e-13,3.113977685495573e-21,4.79594578566688e-13
905508475894821.9,3.3535234351055415e-13,3.3532348928673912e-21,5.164419579524202e-13
1000741633629962.1,3.5829630647927674e-13,3.582661365855192e-21,5.517750688852195e-13
1105990549995348.2,3.80744588997103e-13,3.80713184200447e-21,5.863448015136584e-13
1222308591521349.0,4.031488475110309e-13,4.031164629478182e-21,6.208465285697888e-13
1350859908263400.8,4.2353464954637895e-13,4.235014201470625e-21,6.522398688382322e-13
1492931085007047.2,4.3821513398232013e-13,4.381813941919236e-21,6.748471612175621e-13
1649944017840913.0,4.5075226087095e-13,4.507181779042591e-21,6.941537006152543e-13
1823470144970664.2,4.3689379964966835e-13,4.3685976397507294e-21,6.728126498635317e-13
2015246174200762.5,4.223545636581663e-13,4.223207677286728e-21,6.50423095700083e-13
2227191464489892.5,4.0494891527025527e-13,4.0491579021874556e-21,6.236191180590828e-13
2461427235540539.5,3.8417872846410125e-13,3.8414645663825366e-21,5.916338479674716e-13
2720297797678745.5,3.5949820992694935e-13,3.594672150117633e-21,5.536266017971992e-13
3006394014499780.0,3.3259394852608745e-13,3.3256436930796684e-21,5.121948378593592e-13
3322579233101853.0,3.0398955647891653e-13,3.03961770856164e-21,4.681446845041471e-13
3672017941426255.0,2.7964238397121466e-13,2.796164666892831e-21,4.306502744086484e-13
4058207439516302.0,2.5849054092972776e-13,2.5846678109667403e-21,3.980761963560889e-13
4485012841671661.5,2.3979075647084083e-13,2.3976914438133335e-21,3.692781167914159e-13
4956705759811337.0,2.2330176965748635e-13,2.2328247637029657e-21,3.438843610343238e-13
5478007055201544.0,2.030278319692463e-13,2.030107589972719e-21,3.1266213995485145e-13
6054134086421964.0,1.7996946479531892e-13,1.7995465556278314e-21,2.771520662942364e-13
6690852926444031.0,1.5925969715654246e-13,1.5924698609270063e-21,2.4525880129128914e-13
7394536071427293.0,1.393414153939131e-13,1.3933073524745406e-21,2.1458442248217479e-13
8172226218802792.0,1.1835592644565232e-13,1.1834706468912157e-21,1.822667995283727e-13
9031706752956158.0,9.683585448639676e-14,9.682866332438687e-22,1.4912608044226904e-13
9981579643954578.0,7.737571961008361e-14,7.736997430697231e-22,1.1915770029078158e-13
1.1031351538954474e+16,5.992221006320734e-14,5.991772656130812e-22,9.227952875807065e-14
1.2191528907921542e+16,4.5273669816762797e-14,4.527023691392213e-22,6.97209794994019e-14
1.3473723195913444e+16,3.323785169355322e-14,3.3235288213112873e-22,5.1185980982163696e-14
1.4890767034324804e+16,2.3517144964712526e-14,2.351527411049125e-22,3.621623091252671e-14
1.6456842674175326e+16,1.6027525064185566e-14,1.6026196306903685e-22,2.4682315780654687e-14
1.8187623926844836e+16,1.0572197433817287e-14,1.0571279185576183e-22,1.6281170720530716e-14
2.0100433032845748e+16,6.7528474819348925e-15,6.752231886621383e-23,1.0399400779568505e-14
2.2214414028628204e+16,4.160024206127111e-15,4.1596245950874026e-23,6.406463863799659e-15
2.4550724346531572e+16,2.4607285385835942e-15,2.4604779651321835e-23,3.78954948084489e-15
2.713274656547844e+16,1.3883102725615288e-15,1.3881590009185882e-23,2.1380215847895462e-15
2.9986322431683668e+16,7.439029834685542e-16,7.438152751808464e-24,1.1456288578101583e-15
3.3140011491536276e+16,3.777774495124536e-16,3.777288241750259e-24,5.817899410298172e-16
3.662537692513865e+16,1.808846788825129e-16,1.808589702876549e-24,2.785704873660404e-16
4.0477301441222104e+16,8.108696974103089e-17,8.107407236895999e-25,1.2487869703295944e-16
4.473433639502014e+16,3.388388507045433e-17,3.387776178263055e-25,5.2183783680108127e-17
4.9439087623189256e+16,1.3098135109822032e-17,1.309539777028199e-25,2.0172441378477315e-17
5.463864185734254e+16,4.6711111354558435e-18,4.6699614558824426e-26,7.194123757992133e-18
6.038503798388563e+16,1.5277465930746098e-18,1.5272951654486784e-26,2.3529928140454234e-18
6.673578786668383e+16,4.584078604415254e-19,4.5824245517366986e-27,7.060519418626828e-19
7.375445194512474e+16,1.259686338221189e-19,1.2591239229007513e-27,1.9402920058559765e-19
8.151127536835957e+16,3.1785826787298773e-20,3.1768131033050333e-28,4.8962550884691204e-20
9.0083891032367e+16,7.309412371268062e-21,7.304298504282437e-29,1.1260210012426484e-20
9.955809655606742e+16,1.5306735571046373e-21,1.5293244699590624e-29,2.358246525776647e-21
1.1002871297273315e+17,2.864384078876051e-22,2.8611680793084776e-30,4.413614978295407e-22
1.216005337307576e+17,4.7529825135048867e-23,4.746126332451728e-31,7.324944394294191e-23
1.3438937350170986e+17,6.666354591141663e-24,6.65343696347382e-32,1.0276436694832406e-23
1.48523227292496e+17,7.791804878602209e-25,7.770570721479421e-33,1.2016462479855234e-24
1.6414355146240554e+17,7.297165221484448e-26,7.267072216511821e-34,1.1262119799395503e-25
1.814066794659043e+17,5.543776176386423e-27,5.507504291850777e-35,8.567167301621832e-27
2.0048538649038848e+17,3.7079697742766827e-28,3.6712420076513455e-36,5.740539981502769e-28
2.2157061864833322e+17,2.89329744582529e-29,2.8625886853207143e-37,4.480999880657743e-29
2.4487340403016797e+17,2.6235764284042334e-30,2.6027493955111477e-38,4.05743291659664e-30
2.7062696474432912e+17,2.303606290743223e-31,2.2924704859662984e-39,3.5566440194499913e-31
2.9908905108251654e+17,1.5068700813454122e-32,1.5023093535913e-40,2.3242615360628388e-32
3.305445211712396e+17,5.303883242983439e-34,5.290156569836891e-42,8.179004433745389e-34
3.653081919276934e+17,9.689719060178004e-36,9.66047746032948e-44,1.4945770143182356e-35
4.0372798985328435e+17,1.044800905863525e-37,1.0406172063701093e-45,1.6123954452272775e-37
4.461884331989891e+17,6.788348670296741e-40,6.749895707685537e-48,1.0485532433975005e-39
4.931144803532622e+17,2.642097633867237e-42,2.6207112152246273e-50,4.086419259308846e-42
5.449757829684115e+17,6.092159791473654e-45,6.023790952127426e-53,9.438327680610328e-45
6.02291386392193e+17,8.067741253531637e-48,7.9504601719452445e-56,1.2521248528228373e-47
6.656349244481155e+17,5.814563409807955e-51,5.713029386284743e-59,9.038426151030595e-51
7.356403605555366e+17,2.081889981664749e-54,2.040959601715676e-62,3.2399911779846353e-54
8.130083326486638e+17,3.348626191429997e-58,3.277325821016273e-66,5.21592409154117e-58
8.985131653964767e+17,2.1608114257086307e-62,2.1120379030699087e-70,3.368045487236622e-62
9.930106199042781e+17,5.0296600593141934e-67,4.910152378707252e-75,7.844676012494582e-67
1.0974464584584806e+18,3.7497149333755776e-72,3.656215993858723e-80,5.852027829257201e-72
1.212865910033429e+18,7.95350348441566e-78,7.744995207680565e-86,1.2421180046365104e-77
1.3404241312942976e+18,4.186184605621927e-84,4.070818945667164e-92,6.5423393035565685e-84
1.4813977677932736e+18,4.7377675566457433e-91,4.600091894038346e-99,7.410286262088518e-91
1.6371977310673037e+18,9.778464369684332e-99,9.478886087649572e-107,1.530720267600832e-98
1.8093833195150218e+18,3.087360544979007e-107,2.987325856125882e-115,4.83748245123908e-107
1.999677824379182e+18,1.2206997700676192e-116,1.1788861857226017e-124,1.9145535384656626e-116
2.20998577702465e+18,4.872387684272611e-127,4.6954047829437445e-135,7.650269437464458e-127
2.4424120101284593e+18,1.5389769248368737e-138,1.4797399848022217e-146,2.4191627849302387e-138
2.699282723552652e+18,2.953975178171808e-151,2.833131328621308e-159,4.6493769915781254e-151
2.9831687657344225e+18,2.5612314938622414e-165,2.44998575874549e-173,4.0365995938433554e-165
3.2969113636013133e+18,7.260609321026992e-181,6.924832480377052e-189,1.1459971937589056e-180
3.643650558525291e+18,4.687591026440283e-198,4.4570728446886007e-206,7.410198047386568e-198
4.0268566329122473e+18,4.641106690892851e-217,4.397767800012479e-225,7.349273089249388e-217
4.45036484195463e+18,4.533776965361654e-238,4.2807291215789655e-246,7.192062308646713e-238
4.91841379815459e+18,2.694140088502989e-261,2.533669948393864e-269,4.2821880882583515e-261
5.435687892782449e+18,5.685921891053563e-287,5.325165193780913e-295,9.055821141978651e-287
6.007364178839049e+18,2.3595913e-315,0.0,3.76638489e-315
6.639164184742321e+18,0.0,0.0,0.0
7.337411177306613e+18,0.0,0.0,0.0
8.109093447122479e+18,0.0,0.0,0.0
8.961934249717582e+18,0.0,0.0,0.0
9.904469102493948e+18,0.0,0.0,0.0
1.0946131211055139e+19,0.0,0.0,0.0
1.2097345879898282e+19,0.0,0.0,0.0
1.3369634852365857e+19,0.0,0.0,0.0
1.477573162412537e+19,0.0,0.0,0.0
1.632970888427398e+19,0.0,0.0,0.0
1.8047119359541162e+19,0.0,0.0,0.0
1.9945151471204856e+19,0.0,0.0,0.0
2.2042801362589356e+19,0.0,0.0,0.0
2.436106301885205e+19,0.0,0.0,0.0
2.692313838184337e+19,0.0,0.0,0.0
2.9754669562939585e+19,0.0,0.0,0.0
3.28839954779114e+19,0.0,0.0,0.0
3.634243547231884e+19,0.0,0.0,0.0
4.016460277604765e+19,0.0,0.0,0.0
4.4388750924148195e+19,0.0,0.0,0.0
4.905715661107218e+19,0.0,0.0,0.0
5.421654281003935e+19,0.0,0.0,0.0
5.991854639225893e+19,0.0,0.0,0.0
6.622023492609117e+19,0.0,0.0,0.0
7.31846778284531e+19,0.0,0.0,0.0
8.088157758474212e+19,0.0,0.0,0.0
8.938796735473598e+19,0.0,0.0,0.0
9.878898194634973e+19,0.0,0.0,0.0
1.0917870987340605e+20,0.0,0.0,0.0
1.206611350251067e+20,0.0,0.0,0.0
1.3335117737174702e+20,0.0,0.0,0.0
1.4737584312240187e+20,0.0,0.0,0.0
1.6287549584575775e+20,0.0,0.0,0.0
1.8000526127588265e+20,0.0,0.0,0.0
1.9893657986271363e+20,0.0,0.0,0.0
