Energy,Neutrino Flux Best Fit,Neutrino Flux Min,Neutrino Flux Max
8638297872.340425,1.4787136872949867e-30,1.4787136872949867e-30,9.953735594243569e-23
9546795590.185383,1.805983839401014e-30,1.805983839401014e-30,1.215672180558312e-22
10550840847.085722,2.2056655228914048e-30,2.2056655228914048e-30,1.484714568833056e-22
11660482465.443771,2.6937721823049705e-30,2.6937721823049705e-30,1.8132804320322775e-22
12886826111.539484,3.2898550757168296e-30,3.2898550757168296e-30,2.21453112538301e-22
14242145444.77132,4.017783379476592e-30,4.017783379476592e-30,2.7045348632821228e-22
15740004956.564823,4.90669565419563e-30,4.90669565419563e-30,3.302907321742189e-22
17395395728.361988,5.992160022869549e-30,5.992160022869549e-30,4.033592791782742e-22
19224885467.40302,7.317588422978521e-30,7.317588422978521e-30,4.92581644435453e-22
21246784321.90897,8.935959965101046e-30,8.935959965101046e-30,6.015244788452777e-22
23481328135.19941,1.0911920078679944e-29,1.0911920078679944e-29,7.3453992612152765e-22
25950880972.81387,1.3324336117811162e-29,1.3324336117811162e-29,8.969377331051341e-22
28680158949.596565,1.6269406854223352e-29,1.6269406854223352e-29,1.0951946806661667e-21
31696477596.881134,1.9864443269571196e-29,1.9864443269571196e-29,1.3372092546060488e-21
35030025245.50932,2.4252461789186708e-29,2.4252461789186708e-29,1.6326110802968528e-21
38714165160.79264,2.9607759123704954e-29,2.9607759123704954e-29,1.9931365411757477e-21
42785769453.28546,3.614266403370357e-29,3.614266403370357e-29,2.433083787189057e-21
47285588107.2605,4.4115634839840094e-29,4.4115634839840094e-29,2.9698586878103705e-21
52258656820.24801,5.38412571538509e-29,5.38412571538509e-29,3.624648683039437e-21
57754747735.43369,6.570209600625401e-29,6.570209600625401e-29,4.423222232863525e-21
63828867577.99668,8.016314948394763e-29,8.016314948394763e-29,5.396903761296738e-21
70541808180.90355,9.778899969113261e-29,9.778899969113261e-29,6.5837313829425265e-21
77960754910.0054,1.1926461848377274e-28,1.1926461848377274e-28,8.029861567096977e-21
86159959077.76123,1.45419907850133e-28,1.45419907850133e-28,9.791227412803379e-21
95221481075.3296,1.7725663752907906e-28,1.7725663752907906e-28,1.193536485999093e-20
105236011660.54489,2.159668157014503e-28,2.159668157014503e-28,1.454268973753723e-20
116303779621.50397,2.629670111110158e-28,2.629670111110158e-28,1.7708836602172593e-20
128535554899.96536,3.1993912896091998e-28,3.1993912896091998e-28,2.1547438175899136e-20
142053757214.15753,3.8887690618429324e-28,3.8887690618429324e-28,2.6193303680055685e-20
156993681276.46564,4.721523297378992e-28,4.721523297378992e-28,3.180692893790489e-20
173504850868.3871,5.725807722886839e-28,5.725807722886839e-28,3.857895692078549e-20
191752515324.7937,6.935183515346734e-28,6.935183515346734e-28,4.673678901085721e-20
211919303404.81696,8.389564571439887e-28,8.389564571439887e-28,5.65510596635463e-20
234207051101.8533,1.0136444344822869e-27,1.0136444344822869e-27,6.834401343542599e-20
258838821686.02536,1.2232372949838407e-27,1.2232372949838407e-27,8.249959294674762e-20
286061138196.36334,1.4744819918931632e-27,1.4744819918931632e-27,9.947613755080603e-20
316146450726.2396,1.775219779560738e-27,1.775219779560738e-27,1.1980711938262546e-19
349395863195.4758,2.1338299689609666e-27,2.1338299689609666e-27,1.4406535916532892e-19
386142146899.57745,2.5626156908312008e-27,2.5626156908312008e-27,1.7308591895796937e-19
426753070996.7076,3.0733374567863974e-27,3.0733374567863974e-27,2.076740826144997e-19
471635083265.0332,3.683350384497613e-27,3.683350384497613e-27,2.490093907269586e-19
521237377968.70154,4.40919254830723e-27,4.40919254830723e-27,2.9822595001527497e-19
576056391545.0131,5.275121746828719e-27,5.275121746828719e-27,3.569751371310984e-19
636640771107.1466,6.3042494898912916e-27,6.3042494898912916e-27,4.268445015829766e-19
703596865488.8738,7.531131995569476e-27,7.531131995569476e-27,5.101885677949245e-19
777594793787.4863,8.987689119583605e-27,8.987689119583605e-27,6.0920463040710615e-19
859375152140.9606,1.0722729209678448e-26,1.0722729209678448e-26,7.272220669421131e-19
949756425863.0245,1.2780773782115101e-26,1.2780773782115101e-26,8.673104488845026e-19
1049643181119.285,1.5227875050391657e-26,1.5227875050391657e-26,1.0339879535851753e-18
1160035118129.443,1.8125518932708283e-26,1.8125518932708283e-26,1.2315019497875207e-18
1282037076503.1084,2.1566948569141714e-26,2.1566948569141714e-26,1.4662368408944824e-18
1416870092845.9607,2.5636552408503457e-26,2.5636552408503457e-26,1.744034365910704e-18
1565883621304.4978,3.046128985803304e-26,3.046128985803304e-26,2.073608822862031e-18
1730569039356.7124,3.615479479240226e-26,3.615479479240226e-26,2.4628500022614816e-18
1912574574019.1487,4.2891354553435895e-26,4.2891354553435895e-26,2.9237448551652107e-18
2113721797856.8826,5.0823844956025585e-26,5.0823844956025585e-26,3.4669386771549254e-18
2336023859894.0005,6.019061475380992e-26,6.019061475380992e-26,4.108858675072151e-18
2581705633885.67,7.119626724378202e-26,7.119626724378202e-26,4.8637953471511424e-18
2853225985602.499,8.416433098342925e-26,8.416433098342925e-26,5.7540987925481654e-18
3153302381985.607,9.936721295863679e-26,9.936721295863679e-26,6.798854895070318e-18
3484938088469.1587,1.1724361673584474e-25,1.1724361673584474e-25,8.028438668980642e-18
3851452226670.2544,1.3815469306143979e-25,1.3815469306143979e-25,9.468232957788065e-18
4256512993273.661,1.6268982588304572e-25,1.6268982588304572e-25,1.11591512859638e-17
4704174372577.178,1.9131128614337772e-25,1.9131128614337772e-25,1.3133854541032362e-17
5198916710129.051,2.247934725739653e-25,2.247934725739653e-25,1.5446298015427973e-17
5745691553532.146,2.6372545138330095e-25,2.6372545138330095e-25,1.8138323694629413e-17
6349971209196.62,3.091239563944813e-25,3.091239563944813e-25,2.1281025671895132e-17
7017803511021.757,3.6172386639719894e-25,3.6172386639719894e-25,2.4926953345505003e-17
7755872349150.422,4.228464796671449e-25,4.228464796671449e-25,2.916887087893567e-17
8571564564588.099,4.933885725787782e-25,4.933885725787782e-25,3.407143598667516e-17
9473043879190.514,5.750520351907199e-25,5.750520351907199e-25,3.975466088771353e-17
10469332600935.883,6.689038572199613e-25,6.689038572199613e-25,4.629627209606453e-17
11570401922215.611,7.771143989577892e-25,7.771143989577892e-25,5.385006089465716e-17
12787271714879.273,9.009074808603145e-25,9.009074808603145e-25,6.250642049480287e-17
14132120820815.88,1.0430188033702628e-24,1.0430188033702628e-24,7.246025389831447e-17
15618408941897.057,1.2047724748033417e-24,1.2047724748033417e-24,8.381141989161838e-17
17261011349197.283,1.389557769441948e-24,1.389557769441948e-24,9.680294576386033e-17
19076367759706.527,1.5987018450675565e-24,1.5987018450675565e-24,1.115382550598199e-16
21082646870543.56,1.8363847493866617e-24,1.8363847493866617e-24,1.2831899658201993e-16
23299928197383.297,2.1037804743365254e-24,2.1037804743365254e-24,1.4724224710284797e-16
25750403036998.758,2.4060066524922524e-24,2.4060066524922524e-24,1.6867969580170673e-16
28458596565217.855,2.7438380954504324e-24,2.7438380954504324e-24,1.9270594156506934e-16
31451613293126.332,3.1235154055403723e-24,3.1235154055403723e-24,2.1977694969512592e-16
34759408338124.66,3.545062122040031e-24,3.545062122040031e-24,2.499211263330298e-16
38415087224811.54,4.016068184349705e-24,4.016068184349705e-24,2.8369589827745087e-16
42455237216201.03,4.535324380333607e-24,4.535324380333607e-24,3.2105020857475536e-16
46920293491348.28,5.112082131146075e-24,5.112082131146075e-24,3.62665969165781e-16
51854943834212.29,5.743323673652227e-24,5.743323673652227e-24,4.083714999861291e-16
57308575884017.516,6.4402119214127985e-24,6.4402119214127985e-24,4.589923019174585e-16
63335771423347.53,7.197086129477537e-24,7.197086129477537e-24,5.141753946592886e-16
69996852650970.34,8.027280775268719e-24,8.027280775268719e-24,5.749097247844832e-16
77358485906678.69,8.92150736663028e-24,8.92150736663028e-24,6.405868188937538e-16
85494348890426.27,9.895467798369045e-24,9.895467798369045e-24,7.123748107666734e-16
94485868053512.08,1.0935028432762461e-23,1.0935028432762461e-23,7.893153255273982e-16
104423033541874.4,1.2058335478730582e-23,1.2058335478730582e-23,8.727638647596399e-16
115405299847717.45,1.3244918448518887e-23,1.3244918448518887e-23,9.612933623853955e-16
127542581183497.47,1.4515383118375024e-23,1.4515383118375024e-23,1.0564515087262698e-15
140956351540303.7,1.584118665980069e-23,1.584118665980069e-23,1.1562000100323742e-15
155780860440391.1,1.7245472743189257e-23,1.7245472743189257e-23,1.2622893626072389e-15
172164476551521.28,1.868962179054388e-23,1.868962179054388e-23,1.3719011535510474e-15
190271172610458.03,2.0199607967469737e-23,2.0199607967469737e-23,1.487016813449827e-15
210282166517230.2,2.1724550067626655e-23,2.1724550067626655e-23,1.6038483310904723e-15
232397735024783.44,2.329407622106126e-23,2.329407622106126e-23,1.7246774312720744e-15
256839218176040.9,2.4842870947646243e-23,2.4842870947646243e-23,1.8445506975425463e-15
283851234549446.6,2.6405939226930293e-23,2.6405939226930293e-23,1.966189131152511e-15
313704129483917.75,2.790164775564161e-23,2.790164775564161e-23,2.0832939935886794e-15
346696680785863.75,2.937336485262063e-23,2.937336485262063e-23,2.199263157672918e-15
383159088997892.6,3.072185006338712e-23,3.072185006338712e-23,2.3063154574879336e-15
423456282156829.56,3.2003246508613706e-23,3.2003246508613706e-23,2.408876885671161e-15
467991568116163.7,3.310016076324823e-23,3.310016076324823e-23,2.497608754413129e-15
517210670986602.44,3.408706249384592e-23,3.408706249384592e-23,2.5784122671086915e-15
571606192092785.9,3.48285088687985e-23,3.48285088687985e-23,2.6403824657070597e-15
631722540092909.0,3.5423186325605657e-23,3.5423186325605657e-23,2.691379641542762e-15
698161379603560.1,3.571819804517212e-23,3.571819804517212e-23,2.7189894861844345e-15
771587652861427.0,3.584156817455024e-23,3.584156817455024e-23,2.733462476727515e-15
852736234688697.0,3.5624222689711077e-23,3.5624222689711077e-23,2.7210170118452146e-15
942419287367279.6,3.5226767135018167e-23,3.5226767135018167e-23,2.6945716448259726e-15
1041534389031893.6,3.446652033624206e-23,3.446652033624206e-23,2.6392477956656827e-15
1151073516933736.0,3.3536911514625816e-23,3.3536911514625816e-23,2.570648614160641e-15
1272132975482221.2,3.224734826403666e-23,3.224734826403666e-23,2.473313520426841e-15
1405924368427991.2,3.082133122574332e-23,3.082133122574332e-23,2.3652534227916313e-15
1553786725000490.2,2.906879250700384e-23,2.906879250700384e-23,2.231148762153661e-15
1717199901362545.2,2.72342594764228e-23,2.72342594764228e-23,2.090618759657723e-15
1897799391508255.0,2.5138640261380216e-23,2.5138640261380216e-23,1.9293457297305193e-15
2097392695836583.0,2.303238714923985e-23,2.303238714923985e-23,1.767269415441377e-15
2317977411222873.0,2.0757869541097438e-23,2.0757869541097438e-23,1.5919102582292725e-15
2561761223639799.0,1.8550894097890395e-23,1.8550894097890395e-23,1.4218526623021163e-15
2831184003420590.5,1.6282724253878483e-23,1.6282724253878483e-23,1.2470292576437794e-15
3128942224301420.0,1.415223412805277e-23,1.415223412805277e-23,1.0829416283859223e-15
3458015950636858.0,1.2060363060298156e-23,1.2060363060298156e-23,9.219847864270803e-16
3821698662885568.5,1.015602865712093e-23,1.015602865712093e-23,7.755955499707458e-16
4223630219869724.5,8.372501074832409e-24,8.372501074832409e-24,6.3870772632710395e-16
4667833287705471.0,6.799853908407493e-24,6.799853908407493e-24,5.181537588534226e-16
5158753599997522.0,5.39738795424147e-24,5.39738795424147e-24,4.1083937799312696e-16
5701304452235313.0,4.206424124989238e-24,4.206424124989238e-24,3.1981848493338387e-16
6300915875705675.0,3.1991309516909598e-24,3.1991309516909598e-24,2.429579918833788e-16
6963588983071074.0,2.380347836644687e-24,2.380347836644687e-24,1.805517734485158e-16
7695956029522122.0,1.724935532067195e-24,1.724935532067195e-24,1.306712635184717e-16
8505346790616776.0,1.2179404552671831e-24,1.2179404552671831e-24,9.213399704129974e-17
9399861921137704.0,8.35217791217805e-25,8.35217791217805e-25,6.308580596134476e-17
1.0388454029168072e+16,5.560141407324606e-25,5.560141407324606e-25,4.192052290592713e-17
1.1481017276802354e+16,3.584614580940951e-25,3.584614580940951e-25,2.696792153634706e-17
1.2688486404246024e+16,2.236564949610388e-25,2.236564949610388e-25,1.677889839683301e-17
1.4022946168370948e+16,1.34712751879279e-25,1.34712751879279e-25,1.0071067329782316e-17
1.54977522910239e+16,7.816616774866455e-26,7.816616774866455e-26,5.817993410587958e-18
1.712766512757985e+16,4.356360716363639e-26,4.356360716363639e-26,3.2255030255609368e-18
1.8928997393539704e+16,2.3218613790361875e-26,2.3218613790361875e-26,1.7087135918100642e-18
2.091977742766981e+16,1.1795934803169161e-26,1.1795934803169161e-26,8.62250398428601e-19
2.3119929625676044e+16,5.681267686110847e-27,5.681267686110847e-27,4.122857913930002e-19
2.5551473850252748e+16,2.587632757123603e-27,2.587632757123603e-27,1.8636274828133015e-19
2.823874581326972e+16,1.1070805721503033e-27,1.1070805721503033e-27,7.912863180446477e-20
3.120864063575619e+16,4.447054084947082e-28,4.447054084947082e-28,3.154529683555916e-20
3.4490882023311624e+16,1.6619031204770615e-28,1.6619031204770615e-28,1.170563690625956e-20
3.811831975094214e+16,5.770633483982448e-29,5.770633483982448e-29,4.038019687450021e-21
4.212725843464981e+16,1.8422614964159626e-29,1.8422614964159626e-29,1.2818043170514825e-21
4.6557820880231976e+16,5.378327098757931e-30,5.378327098757931e-30,3.723928855061521e-22
5.145434964580761e+16,1.4215711792093879e-30,1.4215711792093879e-30,9.802465407803006e-23
5.686585083704255e+16,3.3742150581530496e-31,3.3742150581530496e-31,2.3182854048591854e-23
6.284648457672713e+16,7.108601070508082e-32,7.108601070508082e-32,4.86787766984567e-24
6.945610705748851e+16,1.3180535223658418e-32,1.3180535223658418e-32,8.994930084568059e-25
7.676086960268502e+16,2.1121904996612084e-33,2.1121904996612084e-33,1.4365392552243828e-25
8.48338807310846e+16,2.9103667977179337e-34,2.9103667977179337e-34,1.9717634151206102e-26
9.375593785149256e+16,3.3790745105913574e-35,3.3790745105913574e-35,2.2803059085394508e-27
1.0361633591037755e+17,3.282896974646073e-36,3.282896974646073e-36,2.2061032258783665e-28
1.1451376108570682e+17,2.6140621219823027e-37,2.6140621219823027e-37,1.7495545213593136e-29
1.265572784713857e+17,1.6630610668551335e-38,1.6630610668551335e-38,1.1090614258950735e-30
1.3986742363737693e+17,8.197830117426593e-40,8.197830117426593e-40,5.451200136534062e-32
1.5457740899019507e+17,2.9992759249699474e-41,2.9992759249699474e-41,1.9902801795619477e-33
1.70834457007449e+17,7.848397322009333e-43,7.848397322009333e-43,5.20127435639134e-35
1.8880127368987744e+17,1.3974114875290052e-44,1.3974114875290052e-44,9.254499072325234e-37
2.08657676977693e+17,1.624903279296278e-46,1.624903279296278e-46,1.0758812901179715e-38
2.306023964289692e+17,1.1665736579511756e-48,1.1665736579511756e-48,7.72508317701943e-41
2.548550621718478e+17,4.9289805363534355e-51,4.9289805363534355e-51,3.2652474354764877e-43
2.816584030366877e+17,1.1487570204532144e-53,1.1487570204532144e-53,7.614189293804073e-46
3.112806758677774e+17,1.3936630656164813e-56,1.3936630656164813e-56,9.243801041582096e-49
3.440183503279989e+17,8.156503519450675e-60,8.156503519450675e-60,5.414052688767094e-52
3.8019907606686483e+17,2.1448959468472765e-63,2.1448959468472765e-63,1.424906784825202e-55
4.201849619483291e+17,2.3149370876930087e-67,2.3149370876930087e-67,1.5391893535184112e-59
4.643762001580166e+17,9.39345912201683e-72,9.39345912201683e-72,6.251419195435702e-64
5.132150714611166e+17,1.2853444352449158e-76,1.2853444352449158e-76,8.562044441851432e-69
5.6719037169694016e+17,5.322033839352134e-82,5.322033839352134e-82,3.5486767408067115e-74
6.268423038119761e+17,5.846992916081093e-88,5.846992916081093e-88,3.9026061473418504e-80
6.927678843925341e+17,1.4912148816023656e-94,1.4912148816023656e-94,9.96373026021533e-87
7.656269188074221e+17,7.529628166983173e-102,7.529628166983173e-102,5.036350096251232e-94
8.461486047618292e+17,6.384924533288376e-110,6.384924533288376e-110,4.2754865278567365e-102
9.351388303530572e+17,7.495561984324965e-119,7.495561984324965e-119,5.024824536675424e-111
1.033488239669477e+18,9.950685412322207e-129,9.950685412322207e-129,6.678572642112854e-121
1.1421811466558984e+18,1.1813610909720373e-139,1.1813610909720373e-139,7.938257943431963e-132
1.2623053864583967e+18,9.784239213013956e-152,9.784239213013956e-152,6.582767431114821e-144
1.3950632028440635e+18,4.2493868586029115e-165,4.2493868586029115e-165,2.8624819571732376e-157
1.541783280660724e+18,7.136749511139438e-180,7.136749511139438e-180,4.813697579498952e-172
1.7039340437614986e+18,3.2746101515408006e-196,3.2746101515408006e-196,2.2115362325126073e-188
1.8831383514842488e+18,2.826293867093291e-214,2.826293867093291e-214,1.9113239968738543e-206
2.0811897407733046e+18,3.0052350261862333e-234,3.0052350261862333e-234,2.0350288714803352e-226
2.3000703765000553e+18,2.4926460625902419e-256,2.4926460625902419e-256,1.6902621676649436e-248
2.541970889635161e+18,9.628581460911359e-281,9.628581460911359e-281,6.538060963709829e-273
2.809312301819666e+18,9.900438184784527e-308,9.900438184784527e-308,6.732261273158313e-300
3.1047702557632553e+18,0.0,0.0,0.0
3.431301793975833e+18,0.0,0.0,0.0
3.7921749538428933e+18,0.0,0.0,0.0
4.1910014752420183e+18,0.0,0.0,0.0
4.631772948049621e+18,0.0,0.0,0.0
5.118900761313956e+18,0.0,0.0,0.0
5.657260253919464e+18,0.0,0.0,0.0
6.252239508617055e+18,0.0,0.0,0.0
6.909793277767131e+18,0.0,0.0,0.0
7.63650258050285e+18,0.0,0.0,0.0
8.4396405677814e+18,0.0,0.0,0.0
