Energy,Neutrino Flux Best Fit,Neutrino Flux Min,Neutrino Flux Max
11214953271.028036,2.742180350031381e-32,2.742180350031381e-32,1.3466998878885448e-23
12394440202.717543,3.349304511939277e-32,3.349304511939277e-32,1.6448616404745204e-23
13697974857.871061,4.090846843252756e-32,4.090846843252756e-32,2.0090367343639932e-23
15138603449.4505,4.99656759569164e-32,4.99656759569164e-32,2.4538405172222967e-23
16730744272.612375,6.102815905799061e-32,6.102815905799061e-32,2.997124141618758e-23
18490332007.851902,7.45398854582577e-32,7.45398854582577e-32,3.660690951874418e-23
20434977200.64122,9.104311627274513e-32,9.104311627274513e-32,4.4711714689790414e-23
22584142513.687588,1.1120016751932762e-31,1.1120016751932762e-31,5.461092082646651e-23
24959337515.803375,1.3581998931105572e-31,1.3581998931105572e-31,6.670180330716001e-23
27584333956.900368,1.6589062922154208e-31,1.6589062922154208e-31,8.146959136891933e-23
30485403683.65284,2.0261888237232394e-31,2.0261888237232394e-31,9.950693968618813e-23
33691581576.96934,2.4747871908492352e-31,2.4747871908492352e-31,1.2153771032083408e-22
37234956142.83979,3.0227043302364586e-31,3.0227043302364586e-31,1.4844601907964103e-22
41150990664.88872,3.691928827349267e-31,3.691928827349267e-31,1.8131171141805381e-22
45478878132.83748,4.509317245891805e-31,4.509317245891805e-31,2.2145369081864896e-22
50261933499.11848,5.507671763804362e-31,5.507671763804362e-31,2.7048283736543536e-22
55548027189.47792,6.727056329509676e-31,6.727056329509676e-31,3.3036663806010306e-22
61390064206.286354,8.216404022099251e-31,8.216404022099251e-31,4.0350811436588086e-22
67846513619.58444,1.0035480465253067e-30,1.0035480465253067e-30,4.928422341861276e-22
74981993745.18806,1.2257281500141363e-30,1.2257281500141363e-30,6.019536418707886e-22
82867918866.51196,1.4970961652523113e-30,1.4970961652523113e-30,7.352204501411693e-22
91583213972.72131,1.828541044972729e-30,1.828541044972729e-30,8.979898328980267e-22
101215104666.55089,2.2333620294267346e-30,2.2333620294267346e-30,1.096792479375122e-21
111859990147.45483,2.7278020539579487e-30,2.7278020539579487e-30,1.3396044695370685e-21
123624408007.19556,3.331698816898901e-30,3.331698816898901e-30,1.636166871141427e-21
136626100493.87071,4.06927799574438e-30,4.06927799574438e-30,1.998374906190852e-21
150995192915.9068,4.970123881248514e-30,4.970123881248514e-30,2.440754312174482e-21
166875495979.88226,6.070365383763394e-30,6.070365383763394e-30,2.981043330522521e-21
184425945096.41556,7.414123794865211e-30,7.414123794865211e-30,3.6409031092611846e-21
203822191059.17456,9.055283217531267e-30,9.055283217531267e-30,4.4467864730699595e-21
225258358017.05792,1.105965037485333e-29,1.105965037485333e-29,5.4309975605807044e-21
248948986333.92487,1.3507595601332268e-29,1.3507595601332268e-29,6.6329876538282025e-21
275131179780.6656,1.6497275269976002e-29,1.6497275269976002e-29,8.10093594185364e-21
304066978549.43427,2.0148568448359512e-29,2.0148568448359512e-29,9.89368059317926e-21
336045981839.9666,2.460788589448489e-29,2.460788589448489e-29,1.2083077615184736e-20
371388246265.7081,3.0054043856129406e-29,3.0054043856129406e-29,1.4756881864736465e-20
410447489087.9774,3.6705407344339437e-29,3.6705407344339437e-29,1.802224748160491e-20
453614628337.2044,4.482853379279016e-29,4.482853379279016e-29,2.2009955564390108e-20
501321695251.9719,5.474931960492996e-29,5.474931960492996e-29,2.6879921403503677e-20
554046158192.8618,6.686540764697379e-29,6.686540764697379e-29,3.28272098002704e-20
612315701306.2904,8.166284698275158e-29,8.166284698275158e-29,4.009028773269624e-20
676713505764.8074,9.973481373466665e-29,9.973481373466665e-29,4.8960090723218787e-20
747884086440.282,1.2180618691348062e-28,1.2180618691348062e-28,5.979220383315283e-20
826539742425.3732,1.4876176577224487e-28,1.4876176577224487e-28,7.302051570718945e-20
913467685962.2594,1.8168271040408974e-28,1.8168271040408974e-28,8.917530089531139e-20
1009537921127.3473,2.2188869863113413e-28,2.2188869863113413e-28,1.0890357293519647e-19
1115711951124.4917,2.70992155355947e-28,2.70992155355947e-28,1.3299603898432405e-19
1233052401332.2263,3.3096134594750434e-28,3.3096134594750434e-28,1.6241750192186306e-19
1362733654415.719,4.042004766470942e-28,4.042004766470942e-28,1.98346691886444e-19
1506053603943.202,4.936448334990695e-28,4.936448334990695e-28,2.4222209994944273e-19
1664446644141.046,6.028796680382856e-28,6.028796680382856e-28,2.958011547696551e-19
1839498025793.2915,7.36281867383844e-28,7.36281867383844e-28,3.6122831348210597e-19
2032959721964.3125,8.991965638069739e-28,8.991965638069739e-28,4.41123067618172e-19
2246767962334.114,1.0981490359777121e-27,1.0981490359777121e-27,5.386816426543723e-19
2483062611635.7437,1.3411072933347684e-27,1.3411072933347684e-27,6.578080133484531e-19
2744208586140.789,1.6377977547304404e-27,1.6377977547304404e-27,8.032650966168305e-19
3032819522536.2925,2.0000956147442143e-27,2.0000956147442143e-27,9.80869794120714e-19
3351783936079.1807,2.442494807961342e-27,2.442494807961342e-27,1.1977176055213358e-18
3704294129827.838,2.9826877130735425e-27,2.9826877130735425e-27,1.4624726798266957e-18
4093878144284.062,3.642264241382049e-27,3.642264241382049e-27,1.7857012391188604e-18
4524435067208.244,4.447571841282092e-27,4.447571841282092e-27,2.180302514907091e-18
5000274057000.192,5.430753078927259e-27,5.430753078927259e-27,2.6620024973868217e-18
5526157470204.743,6.631019250323456e-27,6.631019250323456e-27,3.2499930889927977e-18
6107348524776.778,8.096185391484161e-27,8.096185391484161e-27,3.9676607222923134e-18
6749663976135.501,9.88455457856716e-27,9.88455457856716e-27,4.8435336164022285e-18
7459532333207.795,1.2067183498235401e-26,1.2067183498235401e-26,5.912354589292928e-18
8244058197106.241,1.473066129354412e-26,1.473066129354412e-26,7.216480371877435e-18
9111093366364.97,1.7980432893665522e-26,1.7980432893665522e-26,8.807450964236849e-18
10069315420378.523,2.1944889577438527e-26,2.1944889577438527e-26,1.0748053314189556e-17
11128314567533.004,2.6780205848729525e-26,2.6780205848729525e-26,1.3114598386077767e-17
12298689627235.047,3.26763474023928e-26,3.26763474023928e-26,1.5999958070468547e-17
13592154106458.81,3.986402875144456e-26,3.986402875144456e-26,1.9516828893396703e-17
15021653432460.762,4.8623526355841327e-26,4.8623526355841327e-26,2.380219567828202e-17
16601494514966.873,5.929450925244877e-26,5.929450925244877e-26,2.90219223591482e-17
18347488934533.758,7.228898383546028e-26,7.228898383546028e-26,3.537732063122888e-17
20277111190161.453,8.810479615644922e-26,8.810479615644922e-26,4.3111417057794106e-17
22409673589952.734,1.0734475758461942e-25,1.0734475758461942e-25,5.251867343403115e-17
24766519535183.65,1.307343475859981e-25,1.307343475859981e-25,6.395312781394071e-17
27371237132237.387,1.5915034957206381e-25,1.5915034957206381e-25,7.784296132619129e-17
30249895270301.043,1.9364216527549062e-25,1.9364216527549062e-25,9.470013496931583e-17
33431304527570.78,2.3547571188968872e-25,2.3547571188968872e-25,1.1514271360674332e-16
36947305517201.945,2.8615473199017264e-25,2.8615473199017264e-25,1.39904101045065e-16
40833087558867.57,3.4749049676255928e-25,3.4749049676255928e-25,1.698684201726742e-16
45127540865296.96,4.216123142425089e-25,4.216123142425089e-25,2.060738847453586e-16
49873645768596.53,5.11083299771168e-25,5.11083299771168e-25,2.497713450435038e-16
55118902881859.445,6.188735814596741e-25,6.188735814596741e-25,3.024085900245811e-16
60915808501267.04,7.485621762363302e-25,7.485621762363302e-25,3.6573191407690463e-16
67322380006665.734,9.042138067348204e-25,9.042138067348204e-25,4.4172213424471303e-16
74402736519004.36,1.0907467612077575e-24,1.0907467612077575e-24,5.327785975953207e-16
82227740626048.53,1.3135893400518997e-24,1.3135893400518997e-24,6.415458968069911e-16
90875707598976.27,1.5793726073259946e-24,1.5793726073259946e-24,7.712584598662243e-16
100433189197934.66,1.8951173762437855e-24,1.8951173762437855e-24,9.253357379030621e-16
110995839911146.83,2.2695639959142784e-24,2.2695639959142784e-24,1.1080404726550797e-15
122669374297179.7,2.7114067754480634e-24,2.7114067754480634e-24,1.323605781255847e-15
135570625011779.3,3.23186306728102e-24,3.23186306728102e-24,1.5775019350110823e-15
149828712108357.44,3.841046141364369e-24,3.841046141364369e-24,1.8746508312139745e-15
165586335314885.53,4.55291088341423e-24,4.55291088341423e-24,2.2218573104186547e-15
183001202220734.0,5.378101537959485e-24,5.378101537959485e-24,2.624298309472488e-15
202247606667235.75,6.333370943184258e-24,6.333370943184258e-24,3.090142888299907e-15
223518173139031.34,7.427938411396852e-24,7.427938411396852e-24,3.623868786839305e-15
247025784614654.75,8.681149036317399e-24,8.681149036317399e-24,4.234909487727678e-15
273005713170935.53,1.009719723651832e-23,1.009719723651832e-23,4.925288203777393e-15
301717974665019.7,1.1697601261856717e-23,1.1697601261856717e-23,5.705499408841197e-15
333449931060464.7,1.347561101688059e-23,1.347561101688059e-23,6.572226410213985e-15
368519166442355.0,1.545461841752749e-23,1.545461841752749e-23,7.536879986881934e-15
407276665505569.7,1.7608037201163884e-23,1.7608037201163884e-23,8.586470586697338e-15
450110326327579.56,1.9961797548675596e-23,1.9961797548675596e-23,9.733650851441996e-15
497448842582780.3,2.2457214316270255e-23,2.2457214316270255e-23,1.0949783798767474e-14
549765994052879.4,2.5125986986987263e-23,2.5125986986987263e-23,1.2250340367588784e-14
607585388374191.5,2.7861884299940153e-23,2.7861884299940153e-23,1.3583511279253226e-14
671485701478854.0,3.0710642757124064e-23,3.0710642757124064e-23,1.497161606837094e-14
742106469178056.2,3.3500989769694607e-23,3.3500989769694607e-23,1.633115198555971e-14
820154487851389.6,3.630903289226933e-23,3.630903289226933e-23,1.7699246591119146e-14
906410888302582.4,3.8881236698143675e-23,3.8881236698143675e-23,1.8952317311673797e-14
1001738953579127.9,4.135096884369142e-23,4.135096884369142e-23,2.0155399511877854e-14
1107092758999183.0,4.3368863794210057e-23,4.3368863794210057e-23,2.113822597529849e-14
1223526720858030.5,4.51627819613552e-23,4.51627819613552e-23,2.2011875604936006e-14
1352206149380755.8,4.628139518841067e-23,4.628139518841067e-23,2.255641459998857e-14
1494418911538665.5,4.708883977904044e-23,4.708883977904044e-23,2.2949314363208477e-14
1651588320454796.5,4.703630094265203e-23,4.703630094265203e-23,2.292316095618341e-14
1825287380400043.8,4.665716203571691e-23,4.665716203571691e-23,2.2737870865294637e-14
2017254529948613.0,4.5322126215696386e-23,4.5322126215696386e-23,2.208683935220595e-14
2229411040855567.0,4.3738882561629334e-23,4.3738882561629334e-23,2.1314881910868472e-14
2463880246790331.5,4.1228176028537597e-23,4.1228176028537597e-23,2.0091076726853593e-14
2723008794373723.0,3.8632269459739783e-23,3.8632269459739783e-23,1.8825774357320865e-14
3009390129206068.5,3.5266332047915143e-23,3.5266332047915143e-23,1.7185357710030332e-14
3325890451942467.0,3.2020099543888015e-23,3.2020099543888015e-23,1.5603278286283628e-14
3675677404192286.0,2.825863156885064e-23,2.825863156885064e-23,1.3770240340518534e-14
4062251771341100.5,2.4804691753513205e-23,2.4804691753513205e-23,1.208704825747181e-14
4489482519587468.0,2.1128683658304708e-23,2.1128683658304708e-23,1.0295733883797082e-14
4961645517857052.0,1.788290804439696e-23,1.788290804439696e-23,8.714048218014743e-15
5483466332136008.0,1.4678637286497348e-23,1.4678637286497348e-23,7.15264701213736e-15
6060167520523653.0,1.1943771877952547e-23,1.1943771877952547e-23,5.819962205657981e-15
6697520902349345.0,9.429554650511876e-24,9.429554650511876e-24,4.594828579359402e-15
7401905324480263.0,7.351893348055702e-24,7.351893348055702e-24,3.582409748482592e-15
8180370502964873.0,5.5680468693695774e-24,5.5680468693695774e-24,2.71317637510822e-15
9040707578960650.0,4.1439983627250825e-24,4.1439983627250825e-24,2.0192613248618572e-15
9991527095093402.0,2.998490498014162e-24,2.998490498014162e-24,1.4610793397024896e-15
1.104234517266208e+16,2.1205108312905058e-24,2.1205108312905058e-24,1.0332580601780547e-15
1.2203678752179144e+16,1.457368873651297e-24,1.457368873651297e-24,7.101247357719937e-16
1.3487150850446094e+16,9.736107351046685e-25,9.736107351046685e-25,4.74402014749127e-16
1.490560688761228e+16,6.306319862369366e-25,6.306319862369366e-25,3.0727862311251247e-16
1.6473243248457156e+16,3.946753082696087e-25,3.946753082696087e-25,1.9230507002080543e-16
1.8205749364580852e+16,2.3826528757331397e-25,2.3826528757331397e-25,1.1609271722831727e-16
2.012046473950895e+16,1.3786035884592291e-25,1.3786035884592291e-25,6.717017962209316e-17
2.2236552488271796e+16,7.626938061758798e-26,7.626938061758798e-26,3.7160329944562965e-17
2.4575191128300704e+16,3.9989673778792e-26,3.9989673778792e-26,1.9483614475379895e-17
2.715978654114859e+16,1.979903202827257e-26,1.979903202827257e-26,9.646240647845627e-18
3.0016206226419796e+16,9.160605943355956e-27,9.160605943355956e-27,4.4630506279204596e-18
3.3173038192400324e+16,3.94225868986759e-27,3.94225868986759e-27,1.9206467128261747e-18
3.6661877074453576e+16,1.559765965856088e-27,1.559765965856088e-27,7.599042398302933e-19
4.051764034475045e+16,5.644630766858385e-28,5.644630766858385e-28,2.750014093476887e-19
4.4778917778066744e+16,1.8428749289480184e-28,1.8428749289480184e-28,8.97841750692437e-20
4.9488357671219944e+16,5.400594879547752e-29,5.400594879547752e-29,2.6312134450544497e-20
5.469309368155814e+16,1.396304716780038e-29,1.396304716780038e-29,6.803228232978256e-21
6.0445216556444984e+16,3.167946387551357e-30,3.167946387551357e-30,1.5436425884669538e-21
6.680229547496774e+16,6.178740914736133e-31,6.178740914736133e-31,3.0111099429930925e-22
7.382795421963075e+16,1.0280351416258644e-31,1.0280351416258644e-31,5.011052435312929e-23
8.159250794455618e+16,1.4303241254910616e-32,1.4303241254910616e-32,6.974526915207914e-24
9.017366691317968e+16,1.6448363634751333e-33,1.6448363634751333e-33,8.025538423475172e-25
9.96573142486864e+16,1.5513531151813794e-34,1.5513531151813794e-34,7.577536186697945e-26
1.1013836548117424e+17,1.1942561079961466e-35,1.1942561079961466e-35,5.844042017496941e-27
1.2172171849418029e+17,7.759788085595885e-37,7.759788085595885e-37,3.8080417285738473e-28
1.3452330337795896e+17,4.3912348419744503e-38,4.3912348419744503e-38,2.1630672913330856e-29
1.4867124269678797e+17,2.2679231724778772e-39,2.2679231724778772e-39,1.1211669578922084e-30
1.6430713378265626e+17,1.0271453664989543e-40,1.0271453664989543e-40,5.092068078951708e-32
1.8158746588895674e+17,3.790618240518471e-42,3.790618240518471e-42,1.8837806368565388e-33
2.0068518638752822e+17,1.0415638220943654e-43,1.0415638220943654e-43,5.193015209466871e-35
2.2179143168408733e+17,2.0082294742736778e-45,2.0082294742736778e-45,1.0065179963774651e-36
2.4511744017561542e+17,2.556821877157832e-47,2.556821877157832e-47,1.2928061299273683e-38
2.7089666639523696e+17,2.055835977123858e-49,2.055835977123858e-49,1.0550035339633811e-40
2.993871175036569e+17,9.817371971352087e-52,9.817371971352087e-52,5.166818851421127e-43
3.308739355115376e+17,2.6536310202178426e-54,2.6536310202178426e-54,1.4585387495075262e-45
3.656722510765891e+17,3.810027942216286e-57,3.810027942216286e-57,2.2556330544276928e-48
4.041303374371033e+17,2.778299879563777e-60,2.778299879563777e-60,1.8592545278143922e-51
4.466330960475838e+17,9.802790521463721e-64,9.802790521463721e-64,7.874891807601684e-55
4.936059088018778e+17,1.6333383481726464e-67,1.6333383481726464e-67,1.6520488437981416e-58
5.4551889539813446e+17,1.2400553768157896e-71,1.2400553768157896e-71,1.5750374776673005e-62
6.028916184547703e+17,4.0134882173582205e-76,4.0134882173582205e-76,6.1004234143023e-67
6.662982834677725e+17,4.900507231609687e-81,4.900507231609687e-81,8.347475644489583e-72
7.363734856523046e+17,1.9399736121747887e-86,1.9399736121747887e-86,3.540916715519392e-77
8.138185611849235e+17,2.149653541955354e-92,2.149653541955354e-92,4.042271715041129e-83
8.994086064117426e+17,5.716346484848705e-99,5.716346484848705e-99,1.0813861507923338e-89
9.940002352732058e+17,3.150866282757964e-106,3.150866282757964e-106,5.789038328586547e-97
1.0985401525843e+18,3.012245412327797e-114,3.012245412327797e-114,5.255703038746192e-105
1.2140746289745505e+18,4.1808542282529403e-123,4.1808542282529403e-123,6.698538710985483e-114
1.3417599723161572e+18,6.734998118723924e-133,6.734998118723924e-133,9.773161644659501e-124
1.4828741004417997e+18,1.0068011651291704e-143,1.0068011651291704e-143,1.297504982274293e-134
1.638829330975866e+18,1.0629160539463246e-155,1.0629160539463246e-155,1.2181453911774214e-146
1.8111865162839e+18,6.013372869611168e-169,6.013372869611168e-169,6.110372408736546e-160
2.0016706650077071e+18,1.3165204879624106e-183,1.3165204879624106e-183,1.2004012925853912e-174
2.212188206531663e+18,7.952961478105109e-200,7.952961478105109e-200,6.553531411786089e-191
2.444846071168722e+18,8.988370953377277e-218,8.988370953377277e-218,6.795424881493022e-209
2.701972777027171e+18,1.2551097672169374e-237,1.2551097672169374e-237,8.79487202096688e-229
2.98614173460253e+18,1.3567308740965063e-259,1.3567308740965063e-259,8.929977365356002e-251
3.3001970023346775e+18,6.823174911048758e-284,6.823174911048758e-284,4.2578661889150966e-275
3.647281750900721e+18,9.0631835091534e-311,9.0631835091534e-311,5.416274958550362e-302
4.0308697211235113e+18,0.0,0.0,0.0
4.4547999903373916e+18,0.0,0.0,0.0
4.923315395164569e+18,0.0,0.0,0.0
5.441104995249983e+18,0.0,0.0,0.0
6.013351002946426e+18,0.0,0.0,0.0
6.645780648637427e+18,0.0,0.0,0.0
7.344723500783983e+18,0.0,0.0,0.0
8.11717481437323e+18,0.0,0.0,0.0
8.970865541781368e+18,0.0,0.0,0.0
9.91433970674372e+18,0.0,0.0,0.0
1.095703991581582e+19,0.0,0.0,0.0
