Energy,Neutrino Flux Best Fit,Neutrino Flux Min,Neutrino Flux Max
3764444444.4444447,9.250344826440076e-29,9.250344826440076e-29,1.9328097289026725e-20
4160354522.7114387,1.1297731182154874e-28,1.1297731182154874e-28,2.360599480672746e-20
4597902827.385173,1.3798157264510116e-28,1.3798157264510116e-28,2.883049071300402e-20
5081468488.963888,1.6851825469476856e-28,1.6851825469476856e-28,3.5210950716077097e-20
5615891195.120693,2.0581081931598567e-28,2.0581081931598567e-28,4.300300786444444e-20
6206519627.924483,2.513530200305354e-28,2.513530200305354e-28,5.251877013731424e-20
6859264995.247828,3.0696850070515246e-28,3.0696850070515246e-28,6.4139272650591e-20
7580660192.122194,3.748834840001334e-28,3.748834840001334e-28,7.832966478255471e-20
8377925184.147202,4.578154027110098e-28,4.578154027110098e-28,9.56577281587098e-20
9259039267.333052,5.59080938177087e-28,5.59080938177087e-28,1.1681644917394522e-19
10232820927.576939,6.827276681023391e-28,6.827276681023391e-28,1.4265152390419455e-19
11309016099.033907,8.336944151293554e-28,8.336944151293554e-28,1.7419485891987477e-19
12498395704.701584,1.018006455284501e-27,1.018006455284501e-27,2.127053544893241e-19
13812863455.437778,1.2430130238616601e-27,1.2430130238616601e-27,2.5971852359832873e-19
15265574986.299734,1.5176760812503336e-27,1.5176760812503336e-27,3.1710681857142537e-19
16871069522.561516,1.8529211120986615e-27,1.8529211120986615e-27,3.871529150726148e-19
18645415393.16739,2.262062532195596e-27,2.262062532195596e-27,4.726385784472979e-19
20606370847.96862,2.76131553527084e-27,2.76131553527084e-27,5.769515759452136e-19
22773561788.256737,3.370426276697344e-27,3.370426276697344e-27,7.0421731922474455e-19
25168678189.380188,4.113422855396449e-27,4.113422855396449e-27,8.594557147553384e-19
27815691181.307827,5.019531094788551e-27,5.019531094788551e-27,1.0487724344486425e-18
30741092959.754673,6.124266058992046e-27,6.124266058992046e-27,1.2795868592347013e-18
33974161928.980896,7.470757561223722e-27,7.470757561223722e-27,1.5609088781744597e-18
37547255729.90254,9.111321677743874e-27,9.111321677743874e-27,1.903667008201346e-18
41496135086.23751,1.1109226696518673e-26,1.1109226696518673e-26,2.3210768331156053e-18
45860321709.84819,1.3540112957077535e-26,1.3540112957077535e-26,2.8289358103252283e-18
50683493847.31748,1.6494316142140508e-26,1.6494316142140508e-26,3.4461075254232528e-18
56013923426.5213,2.0079606287043818e-26,2.0079606287043818e-26,4.195092791867845e-18
61904959178.30759,2.442438024720784e-26,2.442438024720784e-26,5.1026948245885624e-18
68415560568.52569,2.968198027854212e-26,2.968198027854212e-26,6.200920630653674e-18
75610887884.17758,3.6035179565909713e-26,3.6035179565909713e-26,7.527915579798347e-18
83562954379.4714,4.370247994132282e-26,4.370247994132282e-26,9.129278109019649e-18
92351347008.67387,5.29445667348136e-26,5.29445667348136e-26,1.1059405026669277e-17
102064022959.09883,6.407248536218868e-26,6.407248536218868e-26,1.338319686850712e-17
112798189956.20125,7.745745061976914e-26,7.745745061976914e-26,1.6178104148887804e-17
124661279151.16617,9.354304246845137e-26,9.354304246845137e-26,1.9536672481857663e-17
137772020327.9789,1.1284868100416063e-25,1.1284868100416063e-25,2.3567246385547695e-17
152261630191.00928,1.3594569924723997e-25,1.3594569924723997e-25,2.8388894989376034e-17
168275125625.8925,1.6363165446553787e-25,1.6363165446553787e-25,3.4168097344389865e-17
185972775077.26254,1.9670992037183766e-25,1.9670992037183766e-25,4.1072282097725524e-17
205531702569.21408,2.3631028281982594e-25,2.3631028281982594e-25,4.933724846513782e-17
227147660422.0694,2.835620482463556e-25,2.835620482463556e-25,5.919836854229984e-17
251036988407.39383,3.4005275761597537e-25,3.4005275761597537e-25,7.098693228245876e-17
277438778949.145,4.0735996759876966e-25,4.0735996759876966e-25,8.503176061728388e-17
306617270041.0134,4.877445020987125e-25,4.877445020987125e-25,1.0180466426503117e-16
338864489829.07544,5.833872535534716e-25,5.833872535534716e-25,1.2176023829500932e-16
374503179327.6355,6.974843890614283e-25,6.974843890614283e-25,1.4556549543300123e-16
413890022519.77167,8.330668375688825e-25,8.330668375688825e-25,1.7385233109835222e-16
457419216170.5268,9.945041813480102e-25,9.945041813480102e-25,2.0753239556285583e-16
505526415080.62396,1.1859710184145784e-24,1.1859710184145784e-24,2.474761635333714e-16
558693092266.1439,1.4136257785482488e-24,1.4136257785482488e-24,2.9496864919966885e-16
617451357702.2972,1.6831816405581513e-24,1.6831816405581513e-24,3.512013732121742e-16
682389283858.9026,2.0030770302984825e-24,2.0030770302984825e-24,4.179348884254205e-16
754156791327.3275,2.38100685767399e-24,2.38100685767399e-24,4.967742211147082e-16
833472153444.2069,2.8285889052097782e-24,2.8285889052097782e-24,5.901432745139159e-16
921129185012.4208,3.3561581285823195e-24,3.3561581285823195e-24,7.001982179432412e-16
1018005187066.4507,3.9796445816104066e-24,3.9796445816104066e-24,8.302627891803329e-16
1125069727196.0002,4.7128477515242495e-24,4.7128477515242495e-24,9.83216786243741e-16
1243394343304.3228,5.577462941957701e-24,5.577462941957701e-24,1.1635870548025593e-15
1374163267919.7048,6.591809065674168e-24,6.591809065674168e-24,1.3751979374486265e-15
1518685280392.6519,7.78537574409229e-24,7.78537574409229e-24,1.624203265228336e-15
1678406805599.5203,9.182363234271164e-24,9.182363234271164e-24,1.9156575043516657e-15
1854926390248.8362,1.0822537370270279e-23,1.0822537370270279e-23,2.2578598037038037e-15
2050010701674.0544,1.2736993647341755e-23,1.2736993647341755e-23,2.657307154647026e-15
2265612209234.016,1.4978424327328008e-23,1.4978424327328008e-23,3.1249967948516175e-15
2503888725282.553,1.7586584380127926e-23,1.7586584380127926e-23,3.66923938802573e-15
2767225001279.7837,2.063117336384326e-23,2.063117336384326e-23,4.304583534255508e-15
3058256595186.263,2.4162164451480928e-23,2.4162164451480928e-23,5.0414824436232164e-15
3379896249012.908,2.827097381558928e-23,2.827097381558928e-23,5.899020690658195e-15
3735363040522.032,3.3019364574945494e-23,3.3019364574945494e-23,6.890127542245102e-15
4128214600839.575,3.852634896900776e-23,3.852634896900776e-23,8.039653888204992e-15
4562382720423.17,4.4866874851418146e-23,4.4866874851418146e-23,9.363304266532e-15
5042212699742.543,5.2194616764535685e-23,5.2194616764535685e-23,1.0893175805320943e-14
5572506838507.159,6.059828344100671e-23,6.059828344100671e-23,1.2647879468278975e-14
6158572498695.779,7.027441376970276e-23,7.027441376970276e-23,1.4668477956974546e-14
6806275222419.047,8.132418496297167e-23,8.132418496297167e-23,1.6976232428198553e-14
7522097436236.3955,9.399547190876428e-23,9.399547190876428e-23,1.9622948358135277e-14
8313203329459.85,1.0839885423460023e-22,1.0839885423460023e-22,2.2631915707321585e-14
9187510555768.676,1.2484505761333852e-22,1.2484505761333852e-22,2.6068103355059065e-14
10153769475748.568,1.4344825362760312e-22,1.4344825362760312e-22,2.995564085930942e-14
11221650733441.53,1.6459447070085419e-22,1.6459447070085419e-22,3.4375281131848973e-14
12401842043401.836,1.8839124923695824e-22,1.8839124923695824e-22,3.9349885781999544e-14
13706155156935.59,2.1531454516333686e-22,2.1531454516333686e-22,4.4979073082694747e-14
15147644078077.773,2.4544948006008988e-22,2.4544948006008988e-22,5.128116737422492e-14
16740735712452.355,2.7937897558571847e-22,2.7937897558571847e-22,5.837824338245998e-14
18501374256592.742,3.1714257978193115e-22,3.1714257978193115e-22,6.627927298667458e-14
20447180772819.746,3.594530620635458e-22,3.594530620635458e-22,7.513360684631114e-14
22597629546755.96,4.062743264698609e-22,4.062743264698609e-22,8.493458860161856e-14
24974242992521.656,4.584710000415509e-22,4.584710000415509e-22,9.586347215763779e-14
27600807056289.46,5.158849355846134e-22,5.158849355846134e-22,1.0788823380091332e-13
30503609274028.227,5.795622011485787e-22,5.795622011485787e-22,1.2122823475073712e-13
33711701865998.598,6.491624342603029e-22,6.491624342603029e-22,1.3581340163597165e-13
37257192501138.25,7.259478324851739e-22,7.259478324851739e-22,1.5190845707637623e-13
41175565641404.08,8.093172530192277e-22,8.093172530192277e-22,1.6938864058953513e-13
45506037682194.62,9.007888363236309e-22,9.007888363236309e-22,1.8857234131156868e-13
50291949443216.03,9.993972465646174e-22,9.993972465646174e-22,2.0925812884173104e-13
55581199937973.195,1.1069450563348374e-21,1.1069450563348374e-21,2.3182405129002086e-13
61426725763195.945,1.2218503010055924e-21,1.2218503010055924e-21,2.559391245999286e-13
67887030906092.266,1.3459860065166764e-21,1.3459860065166764e-21,2.8199732172677935e-13
75026772271915.83,1.476514172859383e-21,1.476514172859383e-21,3.094054154607488e-13
82917406792005.73,1.614842209487537e-21,1.614842209487537e-21,3.3846352317025636e-13
91637906588773.05,1.7569474665009527e-21,1.7569474665009527e-21,3.683290176318894e-13
101275549355244.72,1.9049294523838686e-21,1.9049294523838686e-21,3.9944638962590776e-13
111926791859551.33,2.054052656005577e-21,2.054052656005577e-21,4.3081836587209405e-13
123698235316682.22,2.207367740763326e-21,2.207367740763326e-21,4.630879544651352e-13
136707692289275.12,2.3592814437642427e-21,2.3592814437642427e-21,4.950711024712604e-13
151085365795341.53,2.5142401829814068e-21,2.5142401829814068e-21,5.277021258948358e-13
166975152423832.62,2.6658375150950882e-21,2.6658375150950882e-21,5.596168395874378e-13
184536082500068.2,2.819172558102323e-21,2.819172558102323e-21,5.918906674890452e-13
203943911714683.75,2.9619778051590364e-21,2.9619778051590364e-21,6.21940642185936e-13
225392880145655.78,3.1036876487910043e-21,3.1036876487910043e-21,6.517429653186283e-13
249097656278289.16,3.2132092412400997e-21,3.2132092412400997e-21,6.748321342060352e-13
275295485479568.88,3.316437035013645e-21,3.316437035013645e-21,6.965792485889611e-13
304248564429536.1,3.395819144983891e-21,3.395819144983891e-21,7.132826159833421e-13
336246665273788.1,3.452251939250439e-21,3.452251939250439e-21,7.251993871763079e-13
371610035760507.3,3.470732077154293e-21,3.470732077154293e-21,7.291354081996313e-13
410692604387564.7,3.462148956353738e-21,3.462148956353738e-21,7.274235539263746e-13
453885522637883.44,3.414611925854369e-21,3.414611925854369e-21,7.174964504968446e-13
501621079754954.56,3.3495284705021308e-21,3.3495284705021308e-21,7.038729047177173e-13
554377029238880.7,3.255710474952394e-21,3.255710474952394e-21,6.841228689349565e-13
612681370363983.6,3.150942634982213e-21,3.150942634982213e-21,6.620446019532223e-13
677117632573010.6,3.027821180911523e-21,3.027821180911523e-21,6.35984285563946e-13
748330715635923.0,2.8919953379225792e-21,2.8919953379225792e-21,6.072652140944723e-13
827033344023559.1,2.6951180658229757e-21,2.6951180658229757e-21,5.658339925260545e-13
914013200093689.5,2.50260984529679e-21,2.50260984529679e-21,5.252925879169374e-13
1010140807480803.1,2.2358440980884735e-21,2.2358440980884735e-21,4.693845805597215e-13
1116378243589236.6,1.981702664990609e-21,1.981702664990609e-21,4.161058221326873e-13
1233788768387195.2,1.7245439583189617e-21,1.7245439583189617e-21,3.621556507148187e-13
1363547465869898.8,1.4754038396168325e-21,1.4754038396168325e-21,3.099286954771727e-13
1506953004695158.2,1.2309441056753282e-21,1.2309441056753282e-21,2.5867454969481837e-13
1665440635695803.0,1.0083316700324341e-21,1.0083316700324341e-21,2.1200983527329747e-13
1840596556352423.5,8.088906005897928e-22,8.088906005897928e-22,1.7016328245704855e-13
2034173785990882.5,6.419734293884747e-22,6.419734293884747e-22,1.351091679280583e-13
2248109710588958.8,5.047991952292265e-22,5.047991952292265e-22,1.0624976387146736e-13
2484545472786377.5,3.9225587658634793e-22,3.9225587658634793e-22,8.255804559186372e-14
2745847401160013.5,3.00403818639121e-22,3.00403818639121e-22,6.320744357901786e-14
3034630693235647.5,2.262069743905796e-22,2.262069743905796e-22,4.757672037680414e-14
3353785589263778.5,1.669703138273441e-22,1.669703138273441e-22,3.5098559228737626e-14
3706506298715525.5,1.2099280270696957e-22,1.2099280270696957e-22,2.5415724208720656e-14
4096322969004607.0,8.547787242303275e-23,8.547787242303275e-23,1.7941592339607827e-14
4527137016389182.0,5.845584827586179e-23,5.845584827586179e-23,1.2261007630055965e-14
5003260172657087.0,3.840786236957964e-23,3.840786236957964e-23,8.051517807691535e-15
5529457638386755.0,2.4201069470098134e-23,2.4201069470098134e-23,5.0711231348419285e-15
6110995774676290.0,1.454908645889084e-23,1.454908645889084e-23,3.0478200879576654e-15
6753694810655396.0,8.322299888017587e-24,8.322299888017587e-24,1.743151839570365e-15
7463987094294759.0,4.5172737373449705e-24,4.5172737373449705e-24,9.461474548687318e-16
8248981469506537.0,2.3095630502692826e-24,2.3095630502692826e-24,4.838068397500419e-16
9116534423843540.0,1.1091260489025718e-24,1.1091260489025718e-24,2.3240875373909034e-16
1.0075328718867408e+16,5.014428474176917e-25,5.014428474176917e-25,1.0510525971814002e-16
1.1134960290144628e+16,2.1524358385821928e-25,2.1524358385821928e-25,4.511989435592362e-17
1.2306034286595012e+16,8.726078783937408e-26,8.726078783937408e-26,1.8289113472139597e-17
1.3600271210386626e+16,3.3307759238961084e-26,3.3307759238961084e-26,6.978629033421466e-18
1.5030624219660782e+16,1.1904050545113077e-26,1.1904050545113077e-26,2.492842068102334e-18
1.6611408768092566e+16,3.958279286314939e-27,3.958279286314939e-27,8.284329023629334e-19
1.835844587876272e+16,1.220962769393018e-27,1.220962769393018e-27,2.5536742093201534e-19
2.028922048627427e+16,3.46406938321949e-28,3.46406938321949e-28,7.240667434433746e-20
2.2423056431855012e+16,8.941586808966741e-29,8.941586808966741e-29,1.8680357992045136e-20
2.478130986285525e+16,2.0762518691286285e-29,2.0762518691286285e-29,4.336241609347898e-21
2.7387582972248828e+16,4.287581550756874e-30,4.287581550756874e-30,8.953774143622015e-22
3.0267960217313196e+16,7.78366719305442e-31,7.78366719305442e-31,1.6256809524108456e-22
3.345126938164519e+16,1.2299092471798126e-31,1.2299092471798126e-31,2.5696106680791196e-23
3.696937009330867e+16,1.6722803238426826e-32,1.6722803238426826e-32,3.49544787520695e-24
4.085747268670025e+16,1.936468235514841e-33,1.936468235514841e-33,4.049731101932408e-25
4.515449059941127e+16,1.878098354708967e-34,1.878098354708967e-34,3.9294860347578596e-26
4.990342983098963e+16,1.4988004235319594e-35,1.4988004235319594e-35,3.1369644271355315e-27
5.515181936143835e+16,9.551209418129835e-37,9.551209418129835e-37,1.999404540874994e-28
6.095218683722319e+16,4.721295208552837e-38,4.721295208552837e-38,9.883388915231741e-30
6.7362584285612216e+16,1.734367382276858e-39,1.734367382276858e-39,3.630187055715776e-31
7.444716911887834e+16,4.56614721493625e-41,4.56614721493625e-41,9.555057252078871e-33
8.22768462432439e+16,8.191027868450454e-43,8.191027868450454e-43,1.7135266319182846e-34
9.092997769901458e+16,9.608430751148581e-45,9.608430751148581e-45,2.009334073176868e-36
1.0049316693421824e+17,6.960749940497933e-47,6.960749940497933e-47,1.4551144601939562e-38
1.1106212556101906e+17,2.968681865128962e-49,2.968681865128962e-49,6.20350764230838e-41
1.2274263126970446e+17,6.979752729580247e-52,6.979752729580247e-52,1.4579719742207674e-43
1.3565158648736016e+17,8.540033537943436e-55,8.540033537943436e-55,1.7832003003181895e-46
1.4991818837665363e+17,5.035357694197552e-58,5.035357694197552e-58,1.0510129011814797e-49
1.6568522188446442e+17,1.3331765723378404e-61,1.3331765723378404e-61,2.7816348885834533e-53
1.831104887816205e+17,1.4467642670584047e-65,1.4467642670584047e-65,3.0175279091520077e-57
2.023683869960644e+17,5.897861558915074e-70,5.897861558915074e-70,1.2296664276603942e-61
2.2365165604592877e+17,8.095524016640537e-75,8.095524016640537e-75,1.687265086368877e-66
2.4717330604141754e+17,3.3589780368392384e-80,3.3589780368392384e-80,6.99825604911468e-72
2.731687495615868e+17,3.691799913716587e-86,3.691799913716587e-86,7.689030470402881e-78
3.0189815774255494e+17,9.407514892325496e-93,9.407514892325496e-93,1.958656919248527e-84
3.336490641576866e+17,4.737292363226233e-100,4.737292363226233e-100,9.859849058276076e-92
3.687392425502317e+17,4.000191256224989e-108,4.000191256224989e-108,8.322953092369448e-100
4.075198872197576e+17,4.666634749233585e-117,4.666634749233585e-117,9.706526231597475e-109
4.503791278927445e+17,6.145453122564846e-127,6.145453122564846e-127,1.2778446087687933e-118
4.977459142553329e+17,7.220977124196407e-138,7.220977124196407e-138,1.5010364044430674e-129
5.500943090259696e+17,5.906718474031593e-150,5.906718474031593e-150,1.2274801832649288e-141
6.079482325344207e+17,2.5273057664375747e-163,2.5273057664375747e-163,5.250568602871805e-155
6.718867062925316e+17,4.17148788866951e-178,4.17148788866951e-178,8.664092582820476e-170
7.425496480361412e+17,1.8758708081517365e-194,1.8758708081517365e-194,3.895171817738964e-186
8.206442762368525e+17,1.582350172207094e-212,1.582350172207094e-212,3.284904502069752e-204
9.069521881822056e+17,1.6394085677574642e-232,1.6394085677574642e-232,3.4026160053874607e-224
1.0023371824640471e+18,1.3207616814548677e-254,1.3207616814548677e-254,2.7407074760358703e-246
1.1077539041651465e+18,4.93934190909731e-279,4.93934190909731e-279,1.0247793820620395e-270
1.2242573992680799e+18,4.9000409870888374e-306,4.9000409870888374e-306,1.016467603057195e-297
1.35301367391001e+18,0.0,0.0,0.0
1.495311364164028e+18,0.0,0.0,0.0
1.65257463314211e+18,0.0,0.0,0.0
1.8263774244981883e+18,0.0,0.0,0.0
2.0184592149853025e+18,0.0,0.0,0.0
2.230742423723561e+18,0.0,0.0,0.0
2.465351652416858e+18,0.0,0.0,0.0
2.7246349490808576e+18,0.0,0.0,0.0
3.0111873080966804e+18,0.0,0.0,0.0
3.327876641786951e+18,0.0,0.0,0.0
3.677872483446193e+18,0.0,0.0,0.0
