Energy,Neutrino Flux Best Fit,Neutrino Flux Min,Neutrino Flux Max
8368421052.631578,1.4481705416079762e-30,1.4481705416079762e-30,6.558838978340111e-21
9248535577.58042,1.768689359660712e-30,1.768689359660712e-30,8.010518700404927e-21
10221212555.129843,2.1601292201076657e-30,2.1601292201076657e-30,9.783424100540339e-21
11296186863.399183,2.6381752709622235e-30,2.6381752709622235e-30,1.1948603933909328e-20
12484217206.576946,3.221978482813974e-30,3.221978482813974e-30,1.4592808258074385e-20
13797193791.648441,3.934920105217573e-30,3.934920105217573e-30,1.7821952615511327e-20
15248257329.583733,4.8055441439703744e-30,4.8055441439703744e-30,2.1765344025309422e-20
16851930551.989777,5.8686945245951584e-30,5.8686945245951584e-30,2.6580835207599515e-20
18624263559.489597,7.16690149022595e-30,7.16690149022595e-30,3.2461109326602806e-20
20582994456.52395,8.752071306791135e-30,8.752071306791135e-30,3.964134090719826e-20
22747726880.262535,1.0687544833156081e-29,1.0687544833156081e-29,4.8408530928079847e-20
25140126200.393837,1.305060432809501e-29,1.305060432809501e-29,5.911287713936315e-20
27784136353.426903,1.5935524433503534e-29,1.5935524433503534e-29,7.218161637737491e-20
30706219481.65578,1.9457283073796712e-29,1.9457283073796712e-29,8.813586631720993e-20
33935620775.173862,2.3756071578111356e-29,2.3756071578111356e-29,1.0761110225719229e-19
37504661167.5659,2.9002771243913006e-29,2.9002771243913006e-29,1.3138203297182898e-19
41449060814.674904,3.540559038813365e-29,3.540559038813365e-29,1.603927666244701e-19
45808296593.92763,4.3218036265709804e-29,4.3218036265709804e-29,1.957930974187244e-19
50625997202.19255,5.27487470481405e-29,5.27487470481405e-29,2.3898320805626507e-19
55950379806.442314,6.43731759651805e-29,6.43731759651805e-29,2.9166692210849946e-19
61834732617.36702,7.854784167219435e-29,7.854784167219435e-29,3.559166535802152e-19
68337948215.697716,9.58272758596174e-29,9.58272758596174e-29,4.342508199769409e-19
75525112968.9487,1.168845949988035e-28,1.168845949988035e-28,5.297278558942882e-19
83468158437.66005,1.4253583085023766e-28,1.4253583085023766e-28,6.460576969842895e-19
92246581290.63237,1.7376692353930785e-28,1.7376692353930785e-28,7.877267392162975e-19
101948238934.30801,2.1175363105809074e-28,2.1175363105809074e-28,9.600967038900492e-19
112670228819.22467,2.5789647459094932e-28,2.5789647459094932e-28,1.169568850452897e-18
124519860223.93584,3.138622108870353e-28,3.138622108870353e-28,1.4237787410281956e-18
137615728242.3385,3.8163160078035e-28,3.8163160078035e-28,1.731822523073725e-18
152088900723.23407,4.635661351253588e-28,4.635661351253588e-28,2.1045663785520527e-18
168084230041.41257,5.624752793506042e-28,5.624752793506042e-28,2.5549662184611505e-18
185761802828.9063,6.81714354997466e-28,6.81714354997466e-28,3.0985211679609393e-18
205298542175.80984,8.252821718920494e-28,8.252821718920494e-28,3.7537371905852756e-18
226889978336.03183,9.97946721892177e-28,9.97946721892177e-28,4.542718100931674e-18
250752205659.79614,1.2053964627585326e-27,1.2053964627585326e-27,5.491876776850942e-18
277124045338.5304,1.4544305250235153e-27,1.4544305250235153e-27,6.632823899210238e-18
306269435607.62103,1.7529886004352773e-27,1.7529886004352773e-27,8.002620199824882e-18
338480073328.98505,2.109686468072191e-27,2.109686468072191e-27,9.64202526730851e-18
374078333391.30695,2.536891978554089e-27,2.536891978554089e-27,1.1608300024323754e-17
413420495146.27893,3.046761911251647e-27,3.046761911251647e-27,1.395912781305579e-17
456900308172.10175,3.656837559900885e-27,3.656837559900885e-27,1.677596145081355e-17
504952933051.6083,4.384309244820695e-27,4.384309244820695e-27,2.0140544398666027e-17
558059296605.6368,5.253866152213821e-27,5.253866152213821e-27,2.4167922298829208e-17
616750905170.3015,6.289703829246996e-27,6.289703829246996e-27,2.8973406605609204e-17
681615164091.0492,7.527176561136187e-27,7.527176561136187e-27,3.472190482521222e-17
753301256672.7877,9.000035167339871e-27,9.000035167339871e-27,4.1574727077220853e-17
832526641424.6044,1.0758563825662076e-26,1.0758563825662076e-26,4.976675765510432e-17
920084232625.6653,1.2850299518433558e-26,1.2850299518433558e-26,5.952536730947042e-17
1016850336077.8347,1.534422976383664e-26,1.534422976383664e-26,7.117457372871576e-17
1123793419468.671,1.8306866421448053e-26,1.8306866421448053e-26,8.503280528183605e-17
1241983805121.562,2.1836455194742046e-26,2.1836455194742046e-26,1.0156156083029348e-16
1372604382141.2837,2.602577447476796e-26,2.602577447476796e-26,1.2120525554420262e-16
1516962445165.739,3.1010699759808404e-26,3.1010699759808404e-26,1.4460429650787115e-16
1676502778210.1,3.6919007055353294e-26,3.6919007055353294e-26,1.7237161001120423e-16
1852822114550.8293,4.3940221671321654e-26,4.3940221671321654e-26,2.0540185373980016e-16
2047685117369.002,5.225078607883322e-26,5.225078607883322e-26,2.4454133537959926e-16
2263042041092.5415,6.21147134927831e-26,6.21147134927831e-26,2.9103757690958483e-16
2501048250198.031,7.377560841578158e-26,7.377560841578158e-26,3.4605755322930195e-16
2764085790822.851,8.759980885217477e-26,8.759980885217477e-26,4.1133354337129167e-16
3054787231083.5415,1.0392380469655707e-25,1.0392380469655707e-25,4.884732232064094e-16
3376062008702.362,1.232567029692722e-25,1.232567029692722e-25,5.798831179907885e-16
3731125549637.9067,1.4606412325747716e-25,1.4606412325747716e-25,6.877783078661308e-16
4123531449148.829,1.7305036443637314e-25,1.7305036443637314e-25,8.154857345021047e-16
4557207037369.62,2.0484813246379942e-25,2.0484813246379942e-25,9.660052891950634e-16
5036492685350.583,2.424188045604618e-25,2.424188045604618e-25,1.1438785934781755e-15
5566185244950.186,2.8662609252574396e-25,2.8662609252574396e-25,1.3531771339571621e-15
6151586057340.723,3.387864477974095e-25,3.387864477974095e-25,1.600110438553352e-15
6798554010612.599,4.0007353863404025e-25,4.0007353863404025e-25,1.8901717327546015e-15
7513564177495.605,4.722841304569075e-25,4.722841304569075e-25,2.231816412564696e-15
8303772620063.114,5.570088324005181e-25,5.570088324005181e-25,2.6324229308888973e-15
9177088010006.572,6.566951947027132e-25,6.566951947027132e-25,3.103470257370742e-15
10142250781279.99,7.734946726076057e-25,7.734946726076057e-25,3.654829544989284e-15
11208920607300.656,9.107329909521949e-25,9.107329909521949e-25,4.302029279824222e-15
12387773078207.52,1.0713079278368582e-24,1.0713079278368582e-24,5.058194100537273e-15
13690606545755.389,1.2597221053778209e-24,1.2597221053778209e-24,5.944234241734242e-15
15130460205184.95,1.4798482341968197e-24,1.4798482341968197e-24,6.977432717998428e-15
16721744595871.31,1.7377402958902144e-24,1.7377402958902144e-24,8.1857344406598e-15
18480385826845.59,2.038543197993977e-24,2.038543197993977e-24,9.59171084362038e-15
20423984970647.137,2.3903866642171034e-24,2.3903866642171034e-24,1.1232611991824428e-14
22571994220773.316,2.800060584864787e-24,2.800060584864787e-24,1.3137648060261407e-14
24945911575770.25,3.27843360570744e-24,3.27843360570744e-24,1.535620672127784e-14
27569495998427.926,3.8343780198051155e-24,3.8343780198051155e-24,1.7925618060748423e-14
30469005203465.523,4.4823530107881206e-24,4.4823530107881206e-24,2.091099034092985e-14
33673458453565.668,5.233797918503396e-24,5.233797918503396e-24,2.4359256567573034e-14
37214926993909.336,6.107827339393136e-24,6.107827339393136e-24,2.835566371888273e-14
41128855031976.96,7.118914224383608e-24,7.118914224383608e-24,3.295789622851453e-14
45454414475090.18,8.292166676569976e-24,8.292166676569976e-24,3.827682268936864e-14
50234896976026.5,9.645453854533917e-24,9.645453854533917e-24,4.438126683510446e-14
55518147210430.76,1.121136715868859e-23,1.121136715868859e-23,5.1413760743768363e-14
61357041722410.695,1.3011053622746407e-23,1.3011053622746407e-23,5.945228289577584e-14
67810018130762.42,1.5086280744674447e-23,1.5086280744674447e-23,6.867784782315384e-14
74941659992300.98,1.7460577191320022e-23,1.7460577191320022e-23,7.917197318799574e-14
82823343175804.44,2.0186658900842527e-23,2.0186658900842527e-23,9.116129069849865e-14
91533950215698.17,2.3288067539494597e-23,2.3288067539494597e-23,1.0471878901767175e-13
101160659794973.73,2.6830152528102766e-23,2.6830152528102766e-23,1.2012358177154191e-13
111799819258749.36,3.0831665502653785e-23,3.0831665502653785e-23,1.3741780283335333e-13
123557908890883.66,3.537206955387127e-23,3.537206955387127e-23,1.5693932948804126e-13
136552607604445.08,4.0456819013811616e-23,4.0456819013811616e-23,1.7866196776121127e-13
150913970711828.16,4.6180730865811415e-23,4.6180730865811415e-23,2.029881590191351e-13
166785731562032.47,5.2522035200758424e-23,5.2522035200758424e-23,2.297642939392994e-13
184326740072329.9,5.959210184157514e-23,5.959210184157514e-23,2.5946380508623237e-13
203712552551628.34,6.732067235552564e-23,6.732067235552564e-23,2.9171797334617907e-13
225137188727016.7,7.583774337337761e-23,7.583774337337761e-23,3.2708228007235023e-13
248815073558407.25,8.4994139372019e-23,8.4994139372019e-23,3.6485029192670594e-13
274983183275604.66,9.494351608969666e-23,9.494351608969666e-23,4.0568377658710454e-13
303903417116063.94,1.0541703477715588e-22,1.0541703477715588e-22,4.4837774084318127e-13
335865218500487.4,1.166038639285911e-22,1.166038639285911e-22,4.937529156498608e-13
371188471879861.5,1.2806482626285494e-22,1.2806482626285494e-22,5.399095513150158e-13
410226704246563.06,1.4004923514187358e-22,1.4004923514187358e-22,5.879312189721276e-13
453370623351321.1,1.5188983585339455e-22,1.5188983585339455e-22,6.350042467079611e-13
501052028037708.0,1.6394108811328136e-22,1.6394108811328136e-22,6.82658025561563e-13
553748129830099.7,1.752490390306499e-22,1.752490390306499e-22,7.269474536735091e-13
611986329027004.0,1.8634600831252768e-22,1.8634600831252768e-22,7.701352083507945e-13
676349493100519.1,1.9594165183502526e-22,1.9594165183502526e-22,8.06966616992561e-13
747481790229899.2,2.048496015592264e-22,2.048496015592264e-22,8.408370146617806e-13
826095136353206.2,2.1141491336485653e-22,2.1141491336485653e-22,8.650907962607691e-13
912976320261301.5,2.1685890423216175e-22,2.1685890423216175e-22,8.847328163474041e-13
1008994878044508.8,2.1916801107642917e-22,2.1916801107642917e-22,8.917493412900887e-13
1115111795702075.2,2.20094447548785e-22,2.20094447548785e-22,8.932064292564058e-13
1232389127013046.2,2.1731521220216295e-22,2.1731521220216295e-22,8.79942001948222e-13
1362000622927453.8,2.1318610102595697e-22,2.1318610102595697e-22,8.613295903700801e-13
1505243478860340.0,2.0516960218282208e-22,2.0516960218282208e-22,8.274428002173643e-13
1663551317459463.2,1.9618809830545547e-22,1.9618809830545547e-22,7.897833122202008e-13
1838508536782627.5,1.8362640030783388e-22,1.8362640030783388e-22,7.381999589129896e-13
2031866167485971.5,1.7078331882787875e-22,1.7078331882787875e-22,6.855617398152055e-13
2245559397727317.8,1.5513576382166532e-22,1.5513576382166532e-22,6.221478758669235e-13
2481726941179701.5,1.4002442536796425e-22,1.4002442536796425e-22,5.60897041699574e-13
2742732441996638.5,1.2320226659797695e-22,1.2320226659797695e-22,4.932128842365215e-13
3031188130957287.0,1.0765407482936502e-22,1.0765407482936502e-22,4.305860919810718e-13
3349980969550070.0,9.156800889442221e-23,9.156800889442221e-23,3.661284579676543e-13
3702301543653597.5,7.724290462472164e-23,7.724290462472164e-23,3.086430494621449e-13
4091675995992539.5,6.338013275747936e-23,6.338013275747936e-23,2.532156480135711e-13
4522001316959163.0,5.1447768470772697e-23,5.1447768470772697e-23,2.05437675713855e-13
4997584347003044.0,4.0619836150524416e-23,4.0619836150524416e-23,1.6218659451243958e-13
5523184880937839.0,3.16109354142673e-23,3.16109354142673e-23,1.2616088793627484e-13
6104063305567605.0,2.3933303073909118e-23,2.3933303073909118e-23,9.550352465721319e-14
6746033247406033.0,1.7778787537405664e-23,1.7778787537405664e-23,7.091274186656898e-14
7455519757404565.0,1.284657394722402e-23,1.284657394722402e-23,5.122219420864852e-14
8239623615021929.0,9.061632658964933e-24,9.061632658964933e-24,3.6110612669839024e-14
9106192395211570.0,6.209138027614427e-24,6.209138027614427e-24,2.4728374647400577e-14
1.0063899009589448e+16,4.131367017998095e-24,4.131367017998095e-24,1.6440876090499824e-14
1.1122328507848586e+16,2.6622385593848033e-24,2.6622385593848033e-24,1.0584722863529074e-14
1.2292074008157964e+16,1.655914747581579e-24,1.655914747581579e-24,6.576861489306427e-15
1.358484271664974e+16,9.92186818975666e-25,9.92186818975666e-25,3.935939212484425e-15
1.5013573097073062e+16,5.693763517027187e-25,5.693763517027187e-25,2.2558683769532665e-15
1.6592564363288074e+16,3.1213963947376553e-25,3.1213963947376553e-25,1.2350883665568233e-15
1.833761959060438e+16,1.6220704141277544e-25,1.6220704141277544e-25,6.411047173645352e-16
2.026620387827022e+16,7.962510840636205e-26,7.962510840636205e-26,3.1442366528346382e-16
2.239761914605614e+16,3.659057480178669e-26,3.659057480178669e-26,1.444343234468765e-16
2.4753197314355556e+16,1.567601410741825e-26,1.567601410741825e-26,6.189602663727807e-17
2.7356513801213976e+16,6.199589619427642e-27,6.199589619427642e-27,2.4512466985128495e-17
3.0233623473036816e+16,2.2542973291081407e-27,2.2542973291081407e-27,8.937433306695012e-18
3.341332141044954e+16,7.455743877221345e-28,7.455743877221345e-28,2.969818986489745e-18
3.69274310991432e+16,2.236755192867602e-28,2.236755192867602e-28,8.97261145116999e-19
4.08111229300153e+16,6.019374795472699e-29,6.019374795472699e-29,2.439857295028372e-19
4.5103266196263096e+16,1.4531510652523445e-29,1.4531510652523445e-29,5.973427366132239e-20
4.984681811033449e+16,3.1222892815351955e-30,3.1222892815351955e-30,1.3074942305248597e-20
5.508925373414817e+16,5.998871854869832e-31,5.998871854869832e-31,2.5683577653055627e-21
6.08830411254708e+16,1.0321023405389902e-31,1.0321023405389902e-31,4.526698163458247e-22
6.728616645587395e+16,1.6019086117967446e-32,1.6019086117967446e-32,7.181522741883462e-23
7.436271435582902e+16,2.2534419798229254e-33,2.2534419798229254e-33,1.025343146978296e-23
8.218350929522883e+16,2.851167387262545e-34,2.851167387262545e-34,1.3036430646847219e-24
9.082682441848638e+16,3.1950885237187307e-35,3.1950885237187307e-35,1.4537526751357656e-25
1.0037916492847438e+17,3.071265292399257e-36,3.071265292399257e-36,1.3825278486506993e-26
1.1093613385966904e+17,2.45535278400771e-37,2.45535278400771e-37,1.0914888269957953e-27
1.226033889054531e+17,1.568958990416191e-38,1.568958990416191e-38,6.897537801461997e-29
1.3549769987582547e+17,7.753727252996435e-40,7.753727252996435e-40,3.380467182189083e-30
1.497481173689043e+17,2.8376764792365053e-41,2.8376764792365053e-41,1.230734932222435e-31
1.65497264352692e+17,7.42184259229248e-43,7.42184259229248e-43,3.210915370441231e-33
1.8290276358367306e+17,1.3207018712015567e-44,1.3207018712015567e-44,5.711423208666021e-35
2.0213881514834064e+17,1.5353612270128592e-46,1.5353612270128592e-46,6.647713529909362e-37
2.2339793991621558e+17,1.1023829890914702e-48,1.1023829890914702e-48,4.783661745072014e-39
2.468929063534118e+17,4.6593760897072125e-51,4.6593760897072125e-51,2.028083632656273e-41
2.728588599809654e+17,1.086334026471372e-53,1.086334026471372e-53,4.744935209675419e-44
3.015556767902386e+17,1.318260371405103e-56,1.318260371405103e-56,5.780584235423823e-47
3.332705641691905e+17,7.71454446799884e-60,7.71454446799884e-60,3.3965728264358433e-50
3.683209353704538e+17,2.0274997820746904e-63,2.0274997820746904e-63,8.965623731106732e-54
4.0705758628984486e+17,2.185678755854728e-67,2.185678755854728e-67,9.707489994031996e-58
4.4986820634960557e+17,8.852261825105302e-72,8.852261825105302e-72,3.949922354815276e-62
4.9718125862443923e+17,1.2081762226563506e-76,1.2081762226563506e-76,5.4159743369762154e-67
5.494702680439763e+17,4.985582774499714e-82,4.985582774499714e-82,2.2458831266281148e-72
6.072585605894344e+17,5.455044016108562e-88,5.455044016108562e-88,2.4693717886666455e-78
6.711245009159201e+17,1.3844021294555398e-94,1.3844021294555398e-94,6.299163185129251e-85
7.417072808203092e+17,6.9514060927835224e-102,6.9514060927835224e-102,3.179150696520435e-92
8.197133164875745e+17,5.856776950414246e-110,5.856776950414246e-110,2.692968923913603e-100
9.059233185414047e+17,6.82758652924699e-119,6.82758652924699e-119,3.1560995307088377e-109
1.0012001056585431e+18,8.993186404816762e-129,8.993186404816762e-129,4.1804437756498527e-119
1.1064972399480851e+18,1.0588806672133599e-139,1.0588806672133599e-139,4.949320870493251e-130
1.222868570521597e+18,8.690765333942355e-152,8.690765333942355e-152,4.0855932119057325e-142
1.35147878076921e+18,3.739331878896419e-165,3.739331878896419e-165,1.7678192243763164e-155
1.4936150449024617e+18,6.21740800287583e-180,6.21740800287583e-180,2.956633294137308e-170
1.6506999104264556e+18,2.82396363619336e-196,2.82396363619336e-196,1.350573525687614e-186
1.8243055354733978e+18,2.411416878853999e-214,2.411416878853999e-214,1.1600635237889223e-204
2.0161694234896166e+18,2.537099342428806e-234,2.537099342428806e-234,1.2274298864361278e-224
2.228211812754072e+18,2.081495106668846e-256,2.081495106668846e-256,1.0128306487270775e-246
2.462554894768416e+18,7.956291996687822e-281,7.956291996687822e-281,3.8925991837872093e-271
2.7215440538628936e+18,8.094950210659662e-308,8.094950210659662e-308,3.982231307962232e-298
3.007771340590978e+18,0.0,0.0,0.0
3.3241014138425457e+18,0.0,0.0,0.0
3.67370021131293e+18,0.0,0.0,0.0
4.0600666352714025e+18,0.0,0.0,0.0
4.487067570751208e+18,0.0,0.0,0.0
4.958976586634585e+18,0.0,0.0,0.0
5.480516706966575e+18,0.0,0.0,0.0
6.056907680567182e+18,0.0,0.0,0.0
6.69391822203186e+18,0.0,0.0,0.0
7.397923746966268e+18,0.0,0.0,0.0
8.175970179288358e+18,0.0,0.0,0.0
