Energy,Neutrino Flux Best Fit,Neutrino Flux Min,Neutrino Flux Max
6274509803.921569,7.355149098517915e-31,7.355149098517915e-31,2.7753989940490922e-21
6934405760.474652,8.982935170267203e-31,8.982935170267203e-31,3.38964307490584e-21
7663703580.612831,1.0970859672181092e-30,1.0970859672181092e-30,4.139790559134067e-21
8469702322.04551,1.3398555654110087e-30,1.3398555654110087e-30,5.0558942883701636e-21
9360468691.082481,1.6363245286874663e-30,1.6363245286874663e-30,6.174645985638488e-21
10344917776.94198,1.9983616642244182e-30,1.9983616642244182e-30,7.540839896025525e-21
11432902276.960058,2.440455132510994e-30,2.440455132510994e-30,9.209157822645864e-21
12635311105.69711,2.9802888088548156e-30,2.9802888088548156e-30,1.1246345560540647e-20
13964178374.8547,3.6394447122743906e-30,3.6394447122743906e-30,1.373386572253481e-20
15432803834.710274,4.444258739855614e-30,4.444258739855614e-30,1.6771130038100528e-20
17055885982.488127,5.426862679068807e-30,5.426862679068807e-30,2.047943597661577e-20
18849669169.859974,6.626452344889978e-30,6.626452344889978e-30,2.500675867611532e-20
20832106181.87638,8.090829899427212e-30,8.090829899427212e-30,3.0533580414653716e-20
23023037914.47369,9.878278176125079e-30,9.878278176125079e-30,3.7279977098391686e-20
25444391948.829338,1.2059836381620755e-29,1.2059836381620755e-29,4.5514225388832677e-20
28120402009.96433,1.4722060127104562e-29,1.4722060127104562e-29,5.556324613263783e-20
31077850506.008564,1.797036077915572e-29,1.797036077915572e-29,6.782524727979931e-20
34346336575.54322,2.19330008385674e-29,2.19330008385674e-29,8.278487129305725e-20
37958572325.728294,2.6766035996167654e-29,2.6766035996167654e-29,1.0103191317608396e-19
41950710226.06601,3.2659151299266307e-29,3.2659151299266307e-29,1.232834748211327e-19
46362704934.46683,3.9842776992943034e-29,3.9842776992943034e-29,1.5041097865167146e-19
51238713176.89507,4.859650316696736e-29,4.859650316696736e-29,1.8347217974414215e-19
56627535682.72391,5.925927766119917e-29,5.925927766119917e-29,2.23749981547312e-19
62583105598.83749,7.22413832703484e-29,7.22413832703484e-29,2.7279814344601525e-19
69165028270.69243,8.803735439780191e-29,8.803735439780191e-29,3.324910703660202e-19
76439177792.64925,1.0723356978143428e-28,1.0723356978143428e-28,4.0505576513199175e-19
84478356298.04984,1.3052428024988409e-28,1.3052428024988409e-28,4.931346122968315e-19
93363022587.43741,1.5873073925697197e-28,1.5873073925697197e-28,5.99860318282559e-19
103182097387.27565,1.9282260194129168e-28,1.9282260194129168e-28,7.289405621539993e-19
114033853298.46631,2.3394973041557084e-28,2.3394973041557084e-28,8.847810788732093e-19
126026898341.56969,2.834719458830982e-28,2.834719458830982e-28,1.0726040007789265e-18
139281262942.3789,3.430055523260605e-28,3.430055523260605e-28,1.298627930988791e-18
153929601236.76456,4.144665149636709e-28,4.144665149636709e-28,1.5702397508587748e-18
170118518717.85345,5.001272089535716e-28,5.001272089535716e-28,1.8962182140675883e-18
188010039513.07938,6.0268497015007e-28,6.0268497015007e-28,2.2870040512183757e-18
207783227976.10864,7.253490009233893e-28,7.253490009233893e-28,2.755040551515756e-18
229635980823.07758,8.718198234669591e-28,8.718198234669591e-28,3.314742759153569e-18
253787007749.4425,1.0459481859087859e-27,1.0459481859087859e-27,3.98134596454157e-18
280478020350.1229,1.2536182751333765e-27,1.2536182751333765e-27,4.7775980315426804e-18
309976151250.3855,1.5001950590248145e-27,1.5001950590248145e-27,5.724832803779697e-18
342576627658.9442,1.7939105184472233e-27,1.7939105184472233e-27,6.8550091060069686e-18
378605726101.0949,2.1422527294524633e-27,2.1422527294524633e-27,8.1980434641328e-18
418424037903.8441,2.5566162273952844e-27,2.5566162273952844e-27,9.798401829057553e-18
462430078115.11084,3.0473658803814467e-27,3.0473658803814467e-27,1.1697722764288394e-17
511064273976.2707,3.630647472573684e-27,3.630647472573684e-27,1.3959187040661953e-17
564813372866.0193,4.320591451604893e-27,4.320591451604893e-27,1.6639973495336776e-17
624215313831.742,5.139848896029534e-27,5.139848896029534e-27,1.9829037292234838e-17
689864611464.3044,6.1079298049509285e-27,6.1079298049509285e-27,2.3605751374929203e-17
762418305999.9058,7.254998968807801e-27,7.254998968807801e-27,2.8089655253162405e-17
842602539199.5955,8.607658389013563e-27,8.607658389013563e-27,3.3389711198053764e-17
931219821820.0885,1.0208272190532117e-26,1.0208272190532117e-26,3.967431628982373e-17
1029157065411.1488,1.2092841940839976e-26,1.2092841940839976e-26,4.709205071848799e-17
1137394458824.4783,1.4318267686839728e-26,1.4318267686839728e-26,5.587092039033004e-17
1257015278273.2036,1.6932092266474057e-26,1.6932092266474057e-26,6.620929889032143e-17
1389216729124.3118,2.001160554415667e-26,2.001160554415667e-26,7.841893922754052e-17
1535321927932.3633,2.3619601304229825e-26,2.3619601304229825e-26,9.276467848468326e-17
1696793144634.684,2.786067074378644e-26,2.786067074378644e-26,1.0967128245476581e-16
1875246437440.3784,3.281732870015181e-26,3.281732870015181e-26,1.2949069997027275e-16
2072467826884.0715,3.862994261197095e-26,3.862994261197095e-26,1.5279738770630484e-16
2290431170919.711,4.5406468586428603e-26,4.5406468586428603e-26,1.8005715469091858e-16
2531317919954.4165,5.333537702193196e-26,5.333537702193196e-26,2.120469630078262e-16
2797538949537.363,6.255764480871151e-26,6.255764480871151e-26,2.493819603287297e-16
3091758689212.589,7.33238057802826e-26,7.33238057802826e-26,2.931036364451349e-16
3416921789025.44,8.580967859728798e-26,8.580967859728798e-26,3.439944163165837e-16
3776282590569.9277,1.0033941813418962e-25,1.0033941813418962e-25,4.034184174004162e-16
4173437697533.251,1.17132416459867e-25,1.17132416459867e-25,4.72370866018892e-16
4612361971714.342,1.366091363040414e-25,1.366091363040414e-25,5.526416374073169e-16
5097448314776.742,1.5903732324455452e-25,1.5903732324455452e-25,6.454742046952623e-16
5633551633884.979,1.8495709218857237e-25,1.8495709218857237e-25,7.531971930706015e-16
6226037431247.224,2.1468866501164455e-25,2.1468866501164455e-25,8.773395847511166e-16
6880835503864.838,2.4892096562020794e-25,2.4892096562020794e-25,1.020911641219798e-15
7604499290933.819,2.880293553845971e-25,2.880293553845971e-25,1.1857639971528214e-15
8404271462866.937,3.328856160910352e-25,3.328856160910352e-25,1.375760231445091e-15
9288156408373.625,3.839165434275052e-25,3.839165434275052e-25,1.593089420462664e-15
10265000345072.484,4.422142209976113e-25,4.422142209976113e-25,1.8426658989731445e-15
11344579855410.594,5.082389249925204e-25,5.082389249925204e-25,2.126984435612734e-15
12537699733986.629,5.833335776350915e-25,5.833335776350915e-25,2.4521991394139837e-15
13856301125566.803,6.679669043367088e-25,6.679669043367088e-25,2.8210486174391735e-15
15313581036075.299,7.637877054458184e-25,7.637877054458184e-25,3.2412195926425352e-15
16924124412665.16,8.712379913627325e-25,8.712379913627325e-25,3.715584542633929e-15
18704050114771.63,9.923268912095439e-25,9.923268912095439e-25,4.25367226514151e-15
20671172237075.08,1.1274158718604566e-24,1.1274158718604566e-24,4.858287630584869e-15
22845178398948.133,1.2789417932139953e-24,1.2789417932139953e-24,5.541175019619324e-15
25247826784767.453,1.44711308721823e-24,1.44711308721823e-24,6.304758245301034e-15
27903163907136.363,1.6348748826962013e-24,1.6348748826962013e-24,7.163433791884292e-15
30837765272465.156,1.8421847478154997e-24,1.8421847478154997e-24,8.118765803881346e-15
34081001357571.63,2.072619536362283e-24,2.072619536362283e-24,9.188403928345653e-15
37665331559284.89,2.3257838039219438e-24,2.3257838039219438e-24,1.037244163712365e-14
41626629058998.52,2.6059813924222167e-24,2.6059813924222167e-24,1.1692292631777988e-14
46004539853527.81,2.9122593768430938e-24,2.9122593768430938e-24,1.3145436877346284e-14
50842879545571.04,3.2497777394665503e-24,3.2497777394665503e-24,1.4757686841201822e-14
56190071864988.29,3.6167720761319806e-24,3.6167720761319806e-24,1.652235106428573e-14
62099633309765.82,4.0194004821791676e-24,4.0194004821791676e-24,1.8470325220492654e-14
68630708757114.93,4.4547217248643026e-24,4.4547217248643026e-24,2.058847527959048e-14
75848663405283.06,4.930026496947785e-24,4.930026496947785e-24,2.2913452970393214e-14
83825736970427.44,5.4406702316504575e-24,5.4406702316504575e-24,2.542243607225403e-14
92641766685975.19,5.995221956294898e-24,5.995221956294898e-24,2.8158590784860224e-14
102384986340489.11,6.5866135713265486e-24,6.5866135713265486e-24,3.1084993994169487e-14
113152909351080.94,7.224869801920241e-24,7.224869801920241e-24,3.4252308962817805e-14
125053304710464.61,7.899480313776898e-24,7.899480313776898e-24,3.7603516345284447e-14
138205275575257.84,8.622132802593026e-24,8.622132802593026e-24,4.1198097735018106e-14
152740451290405.78,9.377463932770843e-24,9.377463932770843e-24,4.4951049480123404e-14
168804304779906.47,1.0179138152019894e-23,1.0179138152019894e-23,4.8932792458216636e-14
186557608488730.6,1.1005052398916631e-23,1.1005052398916631e-23,5.30203928083524e-14
206178043447487.56,1.1871410000186386e-23,1.1871410000186386e-23,5.729889754805846e-14
227861977563900.47,1.2746958654111733e-23,1.2746958654111733e-23,6.159555982877993e-14
251826430938828.88,1.365151188446758e-23,1.365151188446758e-23,6.601653306437552e-14
278311247876379.1,1.4541774903903966e-23,1.4541774903903966e-23,7.032603376082984e-14
307581497326316.9,1.5443120777976415e-23,1.5443120777976415e-23,7.466214057273646e-14
339930125783207.9,1.6296963059447844e-23,1.6296963059447844e-23,7.871251103971698e-14
375680889193398.06,1.713746741419081e-23,1.713746741419081e-23,8.266372879853159e-14
415191593213344.0,1.7887401225398686e-23,1.7887401225398686e-23,8.611457782229764e-14
458857674248882.06,1.8594584683221892e-23,1.8594584683221892e-23,8.932321284194922e-14
507116157115693.25,1.9160141076773796e-23,1.9160141076773796e-23,9.179059629248899e-14
560450028930544.9,1.965216133876996e-23,1.965216133876996e-23,9.387530929703589e-14
619393073008693.4,1.9948237901576914e-23,1.9948237901576914e-23,9.497791701395013e-14
684535211146715.2,2.014468900949623e-23,2.014468900949623e-23,9.558885647053717e-14
756528407758122.2,2.0095766439286938e-23,2.0095766439286938e-23,9.501558770318608e-14
836093194952351.5,1.9933832520264367e-23,1.9933832520264367e-23,9.39071294913329e-14
924025883862291.5,1.9492907943233048e-23,1.9492907943233048e-23,9.149771278547491e-14
1021206534393750.1,1.894614896624561e-23,1.894614896624561e-23,8.860490025095259e-14
1128607763160792.8,1.8113764723990494e-23,1.8113764723990494e-23,8.442276770219142e-14
1247304477759716.0,1.7207360090694295e-23,1.7207360090694295e-23,7.991587044057644e-14
1378484634805571.2,1.6042780997916624e-23,1.6042780997916624e-23,7.428198867910914e-14
1523461129401246.5,1.4857352242154055e-23,1.4857352242154055e-23,6.856952558192859e-14
1683684935032938.0,1.3474291544795726e-23,1.3474291544795726e-23,6.202995633419805e-14
1860759625400491.5,1.213369167624911e-23,1.213369167624911e-23,5.569525643126196e-14
2056457423521959.0,1.0678762770833301e-23,1.0678762770833301e-23,4.891958337450067e-14
2272736938737243.5,9.324506288869544e-24,9.324506288869544e-24,4.2605173732750314e-14
2511762769128675.0,7.944896402405512e-24,7.944896402405512e-24,3.6245695234122035e-14
2775927165546168.0,6.706170561894005e-24,6.706170561894005e-24,3.0523816209424597e-14
3067873974057793.0,5.518063918168056e-24,5.518063918168056e-24,2.5083681710048585e-14
3390525096449835.5,4.487080441421069e-24,4.487080441421069e-24,2.0353142187138916e-14
3747109733601987.0,3.555397768321466e-24,3.555397768321466e-24,1.6105341044343802e-14
4141196704415102.0,2.7745963119595467e-24,2.7745963119595467e-24,1.2540637915620733e-14
4576730163750283.0,2.1095505475438603e-24,2.1095505475438603e-24,9.517797699777351e-15
5058069076856417.0,1.5731260541982633e-24,1.5731260541982633e-24,7.0793977790195755e-15
5590030845359447.0,1.1423219154475788e-24,1.1423219154475788e-24,5.127500807003841e-15
6177939521437087.0,8.098933991405067e-25,8.098933991405067e-25,3.623487514704263e-15
6827679092722451.0,5.583077513642034e-25,5.583077513642034e-25,2.4887138811746398e-15
7545752371229972.0,3.740183295841849e-25,3.740183295841849e-25,1.6599529497678246e-15
8339346075683735.0,2.4292648213269907e-25,2.4292648213269907e-25,1.0726451814544129e-15
9216402758613940.0,1.5253534449574034e-25,1.5253534449574034e-25,6.695723380471849e-16
1.0185700298092296e+16,9.242315271331392e-26,9.242315271331392e-26,4.029495376007097e-16
1.1256939749686056e+16,5.378148726012014e-26,5.378148726012014e-26,2.3271276306566404e-16
1.2440842437882784e+16,2.998763919821506e-26,2.998763919821506e-26,1.2867222337463284e-16
1.3749257258709416e+16,1.5922960244371522e-26,1.5922960244371522e-26,6.771853966003834e-17
1.5195279267466142e+16,8.027997110944001e-27,8.027997110944001e-27,3.38260654485276e-17
1.6793380738441404e+16,3.8169853231665904e-27,3.8169853231665904e-27,1.5934164658191115e-17
1.8559556008297176e+16,1.7058699642286898e-27,1.7058699642286898e-27,7.057005058630618e-18
2.0511481552766184e+16,7.115820390049404e-28,7.115820390049404e-28,2.9191739529297185e-18
2.2668692898762348e+16,2.7619950580753015e-28,2.7619950580753015e-28,1.1246894898772157e-18
2.505278014250009e+16,9.90535246268588e-29,9.90535246268588e-29,4.0089852373548884e-19
2.768760403043417e+16,3.2742902212523846e-29,3.2742902212523846e-29,1.3190403474565243e-19
3.059953476562992e+16,9.906582645568844e-30,9.906582645568844e-30,3.9784849271089877e-20
3.38177159296189e+16,2.7373949532100252e-30,2.7373949532100252e-30,1.0971708344555455e-20
3.737435616115843e+16,6.862903455250123e-31,6.862903455250123e-31,2.7470884512084194e-21
4.130505151111369e+16,1.5555959766816622e-31,1.5555959766816622e-31,6.21563007432514e-22
4.564914169969941e+16,3.1675800759861757e-32,3.1675800759861757e-32,1.2614724737084198e-22
5.0450103841622104e+16,5.752708611194542e-33,5.752708611194542e-33,2.2773763856538334e-23
5.575598757965724e+16,9.238539726698914e-34,9.238539726698914e-34,3.623969810513683e-24
6.1619895981624296e+16,1.2940272311034057e-34,1.2940272311034057e-34,5.015108874172332e-25
6.810051701373748e+16,1.5576046100902056e-35,1.5576046100902056e-35,5.952706251766957e-26
7.526271090949862e+16,1.5735441187831866e-36,1.5735441187831866e-36,5.9288094333508485e-27
8.317815931271277e+16,1.3032917884456045e-37,1.3032917884456045e-37,4.847105360829178e-28
9.192608269147306e+16,8.551676274929505e-39,8.551676274929505e-39,3.146849156608136e-29
1.0159403320323333e+17,4.3129149526630955e-40,4.3129149526630955e-40,1.5744372835152307e-30
1.1227877094622496e+17,1.6027171985236348e-41,1.6027171985236348e-41,5.819142749144544e-32
1.2408723236704494e+17,4.238480924584183e-43,4.238480924584183e-43,1.533828281517159e-33
1.3713760051655349e+17,7.599877517420944e-45,7.599877517420944e-45,2.745674588837522e-35
1.515604878655705e+17,8.87780067848348e-47,8.87780067848348e-47,3.2059678365080736e-37
1.6750024351838586e+17,6.391931381987813e-49,6.391931381987813e-49,2.3092162890629876e-39
1.8511639790710864e+17,2.704882334813624e-51,2.704882334813624e-51,9.78240772334673e-42
2.0458525942585645e+17,6.307713222251298e-54,6.307713222251298e-54,2.284573295483579e-44
2.2610167898441862e+17,7.650488768290571e-57,7.650488768290571e-57,2.775958932069207e-47
2.498810001416548e+17,4.473436335395232e-60,4.473436335395232e-60,1.6264046875982824e-50
2.76161214336214e+17,1.174509386936754e-63,1.174509386936754e-63,4.2796052223879934e-54
3.052053427848387e+17,1.2649215593432121e-67,1.2649215593432121e-67,4.6195819635950285e-58
3.3730406888711334e+17,5.118448488361919e-72,5.118448488361919e-72,1.8739058298790792e-62
3.727786474826231e+17,6.98047878153143e-77,6.98047878153143e-77,2.5620317869025353e-67
4.1198412007736794e+17,2.878664931496309e-82,2.878664931496309e-82,1.0593968214737537e-72
4.553128682184932e+17,3.148116462799202e-88,3.148116462799202e-88,1.1617263150475705e-78
5.031985405806874e+17,7.986025923150783e-95,7.986025923150783e-95,2.955650706575843e-85
5.561203930678851e+17,4.00854075706592e-102,4.00854075706592e-102,1.4879745221068658e-92
6.146080853674255e+17,3.376212806604764e-110,3.376212806604764e-110,1.2572362595659698e-100
6.792469819622322e+17,3.934474685494584e-119,3.934474685494584e-119,1.4698396370636832e-109
7.506840106553142e+17,5.1803019699575146e-129,5.1803019699575146e-129,1.941929925468531e-119
8.29634137240641e+17,6.096114130206761e-140,6.096114130206761e-140,2.293222929530956e-130
9.168875211211383e+17,4.999756186999002e-152,4.999756186999002e-152,1.8878388695243703e-142
1.0133174234895546e+18,2.1490829071180583e-165,2.1490829071180583e-165,8.145413940731424e-156
1.1198889472199985e+18,3.5685052658990003e-180,3.5685052658990003e-180,1.3580273309240727e-170
1.237668695941898e+18,1.6179574334564289e-196,1.6179574334564289e-196,6.182644746371837e-187
1.367835448967599e+18,1.3783848978956832e-214,1.3783848978956832e-214,5.290446795056543e-205
1.5116919589119337e+18,1.4459650586350985e-234,1.4459650586350985e-234,5.574669954565113e-225
1.6706779900782784e+18,1.181858648392267e-256,1.181858648392267e-256,4.578344907170308e-247
1.8463847281035848e+18,4.496883227698512e-281,4.496883227698512e-281,1.7505041134159758e-271
2.0405707050790968e+18,4.549255502936953e-308,4.549255502936953e-308,1.780147354036112e-298
2.2551793995305398e+18,0.0,0.0,0.0
2.4923586874044493e+18,0.0,0.0,0.0
2.754482338732595e+18,0.0,0.0,0.0
3.044173775120253e+18,0.0,0.0,0.0
3.3643323258314644e+18,0.0,0.0,0.0
3.718162245250744e+18,0.0,0.0,0.0
4.1092047821379676e+18,0.0,0.0,0.0
4.541373621636265e+18,0.0,0.0,0.0
5.01899405474827e+18,0.0,0.0,0.0
5.546846267302369e+18,0.0,0.0,0.0
6.130213181659048e+18,0.0,0.0,0.0
