Energy,Neutrino Flux Best Fit,Neutrino Flux Min,Neutrino Flux Max
2063025210.0840337,9.476598396526638e-29,9.476598396526638e-29,4.834019776149555e-20
2279995465.4417777,1.1573794021658017e-28,1.1573794021658017e-28,5.903798033032283e-20
2519784681.7506027,1.4134944918887016e-28,1.4134944918887016e-28,7.210238505543448e-20
2784792750.083267,1.7262624593149372e-28,1.7262624593149372e-28,8.805663190107612e-20
3077671960.259932,2.108205625892427e-28,2.108205625892427e-28,1.0753947348626502e-19
3401353545.856147,2.5746102244904463e-28,2.5746102244904463e-28,1.313306444681551e-19
3759077020.9736977,3.144134722729099e-28,3.144134722729099e-28,1.6038188985329844e-19
4154422602.386572,3.839551274723947e-28,3.839551274723947e-28,1.9585478319248546e-19
4591347041.553789,4.688649096395728e-28,4.688649096395728e-28,2.3916680305994717e-19
5074223225.117909,5.725334635505304e-28,5.725334635505304e-28,2.9204744596047834e-19
5607883940.224333,6.990970697225242e-28,6.990970697225242e-28,3.56606525372766e-19
6197670242.679407,8.536005400957785e-28,8.536005400957785e-28,4.354172507803911e-19
6849484912.032123,1.0421952218705008e-27,1.0421952218705008e-27,5.316172091693908e-19
7569851528.575836,1.2723794632475608e-27,1.2723794632475608e-27,6.490309974065899e-19
8365979763.532503,1.5532903410660907e-27,1.5532903410660907e-27,7.92318990448368e-19
9245837535.865503,1.8960571399010472e-27,1.8960571399010472e-27,9.67157590474045e-19
10218230757.890762,2.3142284434689392e-27,2.3142284434689392e-27,1.1804569966599358e-18
11292891467.806957,2.824281313889583e-27,2.824281313889583e-27,1.4406207815120112e-18
12480575231.20486,3.446253245298213e-27,3.446253245298213e-27,1.7578681101015715e-18
13793168786.382866,4.2044842025292696e-27,4.2044842025292696e-27,2.14461197316312e-18
15243809010.819117,5.12852140258664e-27,5.12852140258664e-27,2.615920372567874e-18
16847014399.456795,6.254184281218459e-27,6.254184281218459e-27,3.190059012903751e-18
18618830370.68132,7.624853542688634e-27,7.624853542688634e-27,3.889148136839647e-18
20576989854.260628,9.292976954247578e-27,9.292976954247578e-27,4.739929558597752e-18
22741090768.466507,1.132164652775127e-26,1.132164652775127e-26,5.774568798922549e-18
25132792162.627754,1.3785276700599114e-26,1.3785276700599114e-26,7.030993049102076e-18
27776030988.17576,1.6771481475038177e-26,1.6771481475038177e-26,8.553843526101125e-18
30697261667.699844,2.038335625198626e-26,2.038335625198626e-26,1.0395634033613036e-17
33925720859.70023,2.474194177229602e-26,2.474194177229602e-26,1.2617999514191162e-17
37493720068.89305,2.999019054872333e-26,2.999019054872333e-26,1.5293714586297994e-17
41436969030.609856,3.629639322340843e-26,3.629639322340843e-26,1.8508429279946757e-17
45794933105.831276,4.386002012079447e-26,4.386002012079447e-26,2.236364246823599e-17
50611228263.784424,5.291677786855495e-26,5.291677786855495e-26,2.6979265171093555e-17
55934057605.2228,6.374547210894457e-26,6.374547210894457e-26,3.249710551280781e-17
61816693795.260254,7.667637481582775e-26,7.667637481582775e-26,3.908511940259985e-17
68318012234.10893,9.210199736600518e-26,9.210199736600518e-26,4.694288785308013e-17
75503080301.8735,1.1047093330563605e-25,1.1047093330563605e-25,5.629837599445682e-17
83443808574.7609,1.3223182597437277e-25,1.3223182597437277e-25,6.737902669294031e-17
92219670530.2971,1.5811929007812121e-25,1.5811929007812121e-25,8.055870997455264e-17
101918497944.6022,1.8875907466704658e-25,1.8875907466704658e-25,9.61545799632202e-17
112637359942.32698,2.2517430126380385e-25,2.2517430126380385e-25,1.1468713125671897e-16
124483534497.07875,2.682419037427012e-25,2.682419037427012e-25,1.3660078248823744e-16
137575582105.43805,3.193698086397635e-25,3.193698086397635e-25,1.626114327392238e-16
152044532380.25854,3.7977630128098993e-25,3.7977630128098993e-25,1.93336384168187e-16
168035195439.07294,4.514591017279021e-25,4.514591017279021e-25,2.29791324387697e-16
185707611212.42105,5.360813509296585e-25,5.360813509296585e-25,2.728186419778447e-16
205238651177.26694,6.364449481866956e-25,6.364449481866956e-25,3.238425852025391e-16
226823788546.18762,7.548644563534389e-25,7.548644563534389e-25,3.8403547821738153e-16
250679054628.98685,8.950257914870793e-25,8.950257914870793e-25,4.552691196327579e-16
277043200946.6527,1.0601047295793608e-24,1.0601047295793608e-24,5.39151770138193e-16
306180088736.8282,1.2552970972788423e-24,1.2552970972788423e-24,6.383219157517488e-16
338381329765.7639,1.4849287672354743e-24,1.4849287672354743e-24,7.54969793984415e-16
373969204876.88763,1.7559310015167517e-24,1.7559310015167517e-24,8.926126380502708e-16
413299889485.81006,2.074029139731776e-24,2.074029139731776e-24,1.054147552952582e-15
456767018303.59625,2.4486221548779134e-24,2.4486221548779134e-24,1.2443419090606977e-15
504805624965.2614,2.887314825289182e-24,2.887314825289182e-24,1.4670421827461515e-15
557896495992.6093,3.4028153663712865e-24,3.4028153663712865e-24,1.728691566790602e-15
616570982667.3387,4.0051926795719485e-24,4.0051926795719485e-24,2.0343809806476398e-15
681416318973.2673,4.7114821074186016e-24,4.7114821074186016e-24,2.392743381024023e-15
753081498831.4138,5.534985233620099e-24,5.534985233620099e-24,2.8105022172228465e-15
832283771449.2981,6.4985981975582984e-24,6.4985981975582984e-24,3.2992562885268513e-15
919815819792.0837,7.61990633080241e-24,7.61990633080241e-24,3.867893113001146e-15
1016553694020.1213,8.929352090405405e-24,8.929352090405405e-24,4.5318273962406374e-15
1123465579293.4092,1.0448972360304258e-23,1.0448972360304258e-23,5.302185885499121e-15
1241621485694.0857,1.2217959565059638e-23,1.2217959565059638e-23,6.1987963844267335e-15
1372203957246.9817,1.4264081204676474e-23,1.4264081204676474e-23,7.235669886073851e-15
1516519907217.6843,1.6638092958401e-23,1.6638092958401e-23,8.438466588385202e-15
1676013698139.7637,1.9374210851047292e-23,1.9374210851047292e-23,9.824436354500125e-15
1852281597480.485,2.2537522082107655e-23,2.2537522082107655e-23,1.1426460511837489e-14
2047087753622.134,2.616939764590036e-23,2.616939764590036e-23,1.3265375799088026e-14
2262381852051.9883,3.03527711502574e-23,3.03527711502574e-23,1.5383049049592725e-14
2500318628469.9814,3.513676739510034e-23,3.513676739510034e-23,1.7804197483228945e-14
2763279434107.812,4.062626675091246e-23,4.062626675091246e-23,2.058172944832343e-14
3053896069092.489,4.687789781008656e-23,4.687789781008656e-23,2.3744103450399037e-14
3375077122386.5557,5.402292594123004e-23,5.402292594123004e-23,2.7357488953123623e-14
3730037081924.0635,6.212317324124368e-23,6.212317324124368e-23,3.145289562128091e-14
4122328506286.229,7.13394678565597e-23,7.13394678565597e-23,3.6111315149690655e-14
4555877579901.764,8.173552899060328e-23,8.173552899060328e-23,4.136462740174846e-14
5035023407620.294,9.350850622785902e-23,9.350850622785902e-23,4.731204013444185e-14
5564561441932.095,1.0671909823213675e-22,1.0671909823213675e-22,5.398381502270628e-14
6149791477468.439,1.2160711194877082e-22,1.2160711194877082e-22,6.15005432826334e-14
6796570693127.587,1.3822206356600215e-22,1.3822206356600215e-22,6.988675152178646e-14
7511372272689.866,1.5685430072926422e-22,1.5685430072926422e-22,7.928837067056918e-14
8301350190616.621,1.7753024971097838e-22,1.7753024971097838e-22,8.97182072739621e-14
9174410811431.22,2.0060005119112593e-22,2.0060005119112593e-22,1.0135218671652109e-13
10139292019272.584,2.2604970022231664e-22,2.2604970022231664e-22,1.1418269650808304e-13
11205650669576.564,2.5430408416903965e-22,2.5430408416903965e-22,1.284232385361393e-13
12384159238130.947,2.852883772610905e-22,2.852883772610905e-22,1.4403562205886657e-13
13686612634800.186,3.1951156344439855e-22,3.1951156344439855e-22,1.6127561745772908e-13
15126046250947.873,3.567986984891742e-22,3.567986984891742e-22,1.8005470852509663e-13
16716866422014.764,3.977565417283461e-22,3.977565417283461e-22,2.0067784260401614e-13
18474994610966.016,4.420601240042556e-22,4.420601240042556e-22,2.2298114745699495e-13
20418026755643.984,4.904289801984243e-22,4.904289801984243e-22,2.4732631393586514e-13
22565409374828.19,5.423190090961981e-22,5.423190090961981e-22,2.7343941292085586e-13
24938634195531.688,5.985770649200653e-22,5.985770649200653e-22,3.017461688451612e-13
27561453249428.49,6.583484899038296e-22,6.583484899038296e-22,3.318166453926988e-13
30460116591169.965,7.226272097532623e-22,7.226272097532623e-22,3.641504925591191e-13
33663635017754.566,7.901359802469805e-22,7.901359802469805e-22,3.981054604653882e-13
37204070418335.32,8.620469893665145e-22,8.620469893665145e-22,4.3427077470454084e-13
41116856660382.67,9.365253807876811e-22,9.365253807876811e-22,4.717239576541635e-13
45441154223739.914,1.0149667173595537e-21,1.0149667173595537e-21,5.111664255749197e-13
50220242131867.8,1.094823773223656e-21,1.094823773223656e-21,5.513175796468913e-13
55501951102857.64,1.1777758040694084e-21,1.1777758040694084e-21,5.930214492060113e-13
61339142255334.85,1.2603261548104152e-21,1.2603261548104152e-21,6.345211590781656e-13
67790236160301.16,1.3444211627834768e-21,1.3444211627834768e-21,6.767969758533079e-13
74919797533844.95,1.425466670323352e-21,1.425466670323352e-21,7.175409776824405e-13
82799181422521.19,1.5059702707593505e-21,1.5059702707593505e-21,7.580154978091728e-13
91507247348639.83,1.5802362437214114e-21,1.5802362437214114e-21,7.953574074755963e-13
101131148562871.6,1.6516257574073596e-21,1.6516257574073596e-21,8.312572522821826e-13
111767204303273.48,1.7133306197204623e-21,1.7133306197204623e-21,8.622901793436788e-13
123521863790597.19,1.7698808231123442e-21,1.7698808231123442e-21,8.907332657068925e-13
136512771607869.58,1.8134063596652823e-21,1.8134063596652823e-21,9.126245395482737e-13
150869945126920.38,1.849878904346215e-21,1.849878904346215e-21,9.309656544320363e-13
166737075765941.1,1.870519045089046e-21,1.870519045089046e-21,9.413331144705023e-13
184272967101493.88,1.8825136174342083e-21,1.8825136174342083e-21,9.473475333341365e-13
203653124228081.53,1.873692739493466e-21,1.873692739493466e-21,9.429188631328727e-13
225071510272123.12,1.8559640196986867e-21,1.8559640196986867e-21,9.339965321267576e-13
248742487640114.78,1.8175918116781774e-21,1.8175918116781774e-21,9.146916205292394e-13
274902963429645.94,1.7692732182311232e-21,1.7692732182311232e-21,8.90393464950915e-13
303814760475257.94,1.700642047559009e-21,1.700642047559009e-21,8.558772452302466e-13
335767237759373.6,1.6233656200353893e-21,1.6233656200353893e-21,8.170289430486166e-13
371080186414251.75,1.5283393909085175e-21,1.5283393909085175e-21,7.692447540507741e-13
410107030299120.94,1.4286458637710333e-21,1.4286458637710333e-21,7.191131722786627e-13
453238363184956.8,1.3163002732356775e-21,1.3163002732356775e-21,6.625925752543554e-13
500905857948222.3,1.2037499379159787e-21,1.2037499379159787e-21,6.059596409596149e-13
553586586898106.6,1.0846884119401443e-21,1.0846884119401443e-21,5.460155318691484e-13
611807796476545.5,9.690078727987723e-22,9.690078727987723e-22,4.877713915959991e-13
676152184117822.6,8.522424754250258e-22,8.522424754250258e-22,4.289554182254097e-13
747263730080348.1,7.423306264098644e-22,7.423306264098644e-22,3.735901124340321e-13
825854142617531.0,6.307966593903672e-22,6.307966593903672e-22,3.174819127007466e-13
912709980993193.1,5.30030292372966e-22,5.30030292372966e-22,2.667739227079882e-13
1008700527631055.6,4.366178523595662e-22,4.366178523595662e-22,2.197624347444155e-13
1114786488185403.5,3.5383729549707995e-22,3.5383729549707995e-22,1.7810700789114282e-13
1232029606606189.0,2.802618253355062e-22,2.802618253355062e-22,1.4108729081926545e-13
1361603291429340.5,2.1728952607426656e-22,2.1728952607426656e-22,1.0940917972552893e-13
1504804359643787.2,1.642144896691909e-22,1.642144896691909e-22,8.270938294941433e-14
1663066015671763.8,1.212712769527645e-22,1.212712769527645e-22,6.110130695359197e-14
1837972195360371.8,8.744940579651815e-23,8.744940579651815e-23,4.4073807073093294e-14
2031273418543935.0,6.155135774346802e-23,6.155135774346802e-23,3.1029570474896944e-14
2244904308834859.2,4.2196553225858836e-23,4.2196553225858836e-23,2.1276791742779336e-14
2481002955986997.5,2.810390510379783e-23,2.810390510379783e-23,1.4173546997411392e-14
2741932314616549.5,1.8154613184412995e-23,1.8154613184412995e-23,9.157261205571245e-15
3030303853446056.5,1.1357830363332686e-23,1.1357830363332686e-23,5.7294054530750825e-15
3349003691761150.0,6.865556144411028e-24,6.865556144411028e-24,3.4633444828957857e-15
3701221484662401.5,3.993706179526339e-24,3.993706179526339e-24,2.0145740282570067e-15
4090482346205656.5,2.2268991158924408e-24,2.2268991158924408e-24,1.123308443022959e-15
4520682129928341.0,1.1835805369081248e-24,1.1835805369081248e-24,5.970639710483196e-16
4996126419861078.0,5.970514607344759e-25,5.970514607344759e-25,3.012457902178368e-16
5521573622259864.0,2.8511398345049345e-25,2.8511398345049345e-25,1.4389926198300343e-16
6102282589335210.0,1.286990299665781e-25,1.286990299665781e-25,6.497943908595907e-17
6744065251612632.0,5.461737266673645e-26,5.461737266673645e-26,2.75892239121472e-17
7453344785686816.0,2.1701388766866064e-26,2.1701388766866064e-26,1.096899443814674e-17
8237219899531837.0,8.048724146401447e-27,8.048724146401447e-27,4.071048227174097e-18
9103535878756592.0,2.7835075660516007e-27,2.7835075660516007e-27,1.4087831831693778e-18
1.0060963104860016e+16,8.912101730036196e-28,8.912101730036196e-28,4.513207781287449e-19
1.1119083831323358e+16,2.622946073214929e-28,2.622946073214929e-28,1.3290508773573912e-19
1.2288488086023744e+16,7.029899179410696e-29,7.029899179410696e-29,3.5642885346281216e-20
1.3580879659792514e+16,1.698692076565618e-29,1.698692076565618e-29,8.619193144117926e-21
1.5009193241887776e+16,3.669186462560191e-30,3.669186462560191e-30,1.8634227152814656e-21
1.6587723874711912e+16,7.008178810637323e-31,7.008178810637323e-31,3.562896371781625e-22
1.8332270023400696e+16,1.1719168071715885e-31,1.1719168071715885e-31,5.9649528962353e-23
2.0260291692172452e+16,1.6917839811701773e-32,1.6917839811701773e-32,8.621619608579922e-24
2.2391085169918596e+16,2.0789176609371404e-33,2.0789176609371404e-33,1.0607093211871762e-24
2.4745976153948988e+16,2.126803441648863e-34,2.126803441648863e-34,1.0862624600225188e-25
2.7348533184737924e+16,1.7722579472336155e-35,1.7722579472336155e-35,9.059149127674434e-27
3.0224803527799064e+16,1.164297284341491e-36,1.164297284341491e-36,5.954814505622059e-28
3.3403573863473812e+16,5.85762553915504e-38,5.85762553915504e-38,2.996862459086765e-29
3.6916658393702984e+16,2.16651963566154e-39,2.16651963566154e-39,1.108571106878407e-30
4.079921724925384e+16,5.692526134915503e-41,5.692526134915503e-41,2.912679112859166e-32
4.5090108384125736e+16,1.0133758265051444e-42,1.0133758265051444e-42,5.184398938294346e-34
4.983227647901459e+16,1.1743308461561858e-44,1.1743308461561858e-44,6.0064813429426443e-36
5.5073182746112136e+16,8.387353524378673e-47,8.387353524378673e-47,4.288797456521019e-38
6.0865279936868536e+16,3.519446096002427e-49,3.519446096002427e-49,1.799055650939826e-40
6.726653730676039e+16,8.140226450556303e-52,8.140226450556303e-52,4.159670110161775e-43
7.434102079108229e+16,9.789961265352265e-55,9.789961265352265e-55,5.000837202906806e-46
8.215953419836104e+16,5.6781434135266176e-58,5.6781434135266176e-58,2.899387159176329e-49
9.080032783867037e+16,1.478459466263302e-61,1.478459466263302e-61,7.546373112712274e-53
1.003498816790329e+17,1.5796732854269343e-65,1.5796732854269343e-65,8.059841773930695e-57
1.1090377086399955e+17,6.340564258303547e-70,6.340564258303547e-70,3.233774626725945e-61
1.2256762226381782e+17,8.580989630494778e-75,8.580989630494778e-75,4.374659312047043e-66
1.3545817162365245e+17,3.511278130535366e-80,3.511278130535366e-80,1.7893269167742432e-71
1.4970443189416083e+17,3.811870501995358e-86,3.811870501995358e-86,1.941704244941122e-77
1.6544898443646262e+17,9.598834143475206e-93,9.598834143475206e-93,4.887386841858858e-84
1.8284940602432918e+17,4.784982740655806e-100,4.784982740655806e-100,2.4353144260057566e-91
2.0207984592549504e+17,4.002651476934555e-108,4.002651476934555e-108,2.036253510177222e-99
2.2333276884606432e+17,4.634983330422326e-117,4.634983330422326e-117,2.3569212397978404e-108
2.4682088118198163e+17,6.064704405256735e-127,6.064704405256735e-127,3.0825666056858035e-118
2.727792598561304e+17,7.09630994242038e-138,7.09630994242038e-138,3.6053293494808433e-129
3.014677050471957e+17,5.788103837378398e-150,5.788103837378398e-150,2.939351743422089e-141
3.3317334035716826e+17,2.4756570437772204e-163,2.4756570437772204e-163,1.2566441598512932e-154
3.682134864408611e+17,4.0915774905984596e-178,4.0915774905984596e-178,2.0759301509033462e-169
4.069388368576821e+17,1.84751367338366e-194,1.84751367338366e-194,9.369439966834345e-186
4.4973696793064134e+17,1.5680462147215798e-212,1.5680462147215798e-212,7.948451240065752e-204
4.9703621774046394e+17,1.6397075703545206e-232,1.6397075703545206e-232,8.307909781052173e-224
5.493099730770768e+17,1.3365322686486284e-254,1.3365322686486284e-254,6.768624006150921e-246
6.07081407253701e+17,5.07436585620135e-279,5.07436585620135e-279,2.568635137201118e-270
6.709287162012298e+17,5.1248697191420736e-306,5.1248697191420736e-306,2.5929684325713637e-297
7.414909052474298e+17,0.0,0.0,0.0
8.194741844970433e+17,0.0,0.0,0.0
9.056590368198913e+17,0.0,0.0,0.0
1.0009080291857439e+18,0.0,0.0,0.0
1.1061744455244972e+18,0.0,0.0,0.0
1.2225118275121308e+18,0.0,0.0,0.0
1.3510845187699167e+18,0.0,0.0,0.0
1.4931793180067453e+18,0.0,0.0,0.0
1.6502183577330806e+18,0.0,0.0,0.0
1.8237733374411587e+18,0.0,0.0,0.0
2.0155812537017362e+18,0.0,0.0,0.0
