Energy,Neutrino Flux Best Fit,Neutrino Flux Min,Neutrino Flux Max
4795918367.346939,2.6604696839820697e-21,2.465097692538065e-30,3.3612780187728483e-21
5300309505.056678,3.249416291692595e-21,3.010800216050513e-30,4.105360546354041e-21
5857747921.78857,3.968722702608767e-21,3.677292744847469e-30,5.014140670158396e-21
6473812648.578792,4.8472371065332585e-21,4.491306492773666e-30,6.124065179871605e-21
7154669468.279562,5.9201890922386145e-21,5.485486099633209e-30,7.479643026075674e-21
7907132624.786329,7.23060012550798e-21,6.699696802632498e-30,9.135227257217505e-21
8738733022.281013,8.831005289447455e-21,8.182620126885463e-30,1.1157190175399821e-20
9657793597.052286,1.0785554756093104e-20,9.99370158448308e-30,1.3626578201097634e-20
10673512616.239388,1.3172578421569189e-20,1.2205527756857701e-29,1.664235183537006e-20
11796055737.181292,1.608771532681897e-20,1.4906727019022383e-29,2.032533908031747e-20
13036657748.732157,1.9647731578900864e-20,1.8205508677653138e-29,2.482305857815527e-20
14407735012.804325,2.3995177294480826e-20,2.2233980194496596e-29,3.031560257857823e-20
15923009731.49161,2.930406557486268e-20,2.715341235666881e-29,3.702281086285876e-20
17597647283.48005,3.5786795840970936e-20,3.3160658813424775e-29,4.5213016391155326e-20
19448408004.255077,4.370259136904075e-20,4.049598060326065e-29,5.52137034124715e-20
21493814929.17235,5.3367778178420396e-20,4.9452579656282825e-29,6.742449110536222e-20
23754339178.22147,6.516829545539517e-20,6.038820418394787e-29,8.233293529560417e-20
26252604837.87535,7.957485325548362e-20,7.373921455286456e-29,1.0053367248611545e-19
29013615390.551888,9.716155564908434e-20,9.003786415197872e-29,1.2275194094286613e-19
32065003957.869972,1.1862835742624609e-19,1.0993314939374054e-28,1.4987193998881248e-19
35437309862.21843,1.4482847669291215e-19,1.3421626278240939e-28,1.8297144727498412e-19
39164284274.55915,1.7680150786544913e-19,1.6385135963473982e-28,2.233636283653678e-19
43283228007.49018,2.158137442230655e-19,2.0001302898206211e-28,2.726479476968063e-19
47835364834.31551,2.634068074373976e-19,2.4413152283813176e-28,3.327715560776969e-19
52866254070.42403,3.214543535379257e-19,2.9794558062625057e-28,4.0610084840499383e-19
58426246546.23095,3.922186553096041e-19,3.63555568694831e-28,4.954927361020451e-19
64570988535.2122,4.784307043904287e-19,4.43498337466652e-28,6.043956565656303e-19
71361978680.51259,5.833891078070674e-19,5.4083987077973805e-28,7.36974212508633e-19
78867183494.0369,7.110769889660825e-19,6.592848382452563e-28,8.98256492017859e-19
87161717588.14532,8.663160980121572e-19,8.033209768341567e-28,1.0943282906280398e-18
96328595447.94086,1.0549399273947686e-18,9.783817289208359e-28,1.3325511499372078e-18
106459562268.13846,1.2840232345361876e-18,1.1910615236728779e-27,1.6218515440727037e-18
117656012169.81017,1.5621414288997838e-18,1.4493599559012227e-27,1.973047426352505e-18
130030002986.82867,1.8996941671783896e-18,1.762986321754637e-27,2.399255633331405e-18
143705377778.33267,2.3093026448081288e-18,2.1437339354817726e-27,2.916391941368729e-18
158819004291.68762,2.8062990934916726e-18,2.60594125358372e-27,3.543787198142223e-18
175522144780.90466,3.409128912391751e-18,3.166879492085961e-27,4.304690831050375e-18
193981969890.11917,4.139340026577744e-18,3.846774036215354e-27,5.226247968232774e-18
214383231753.58566,5.025232053162243e-18,4.6721337907865094e-27,6.344125280476101e-18
236930113057.13458,6.0986964493836305e-18,5.672964215376677e-27,7.698476394109476e-18
261848270567.12033,7.401265141807528e-18,6.888235490087173e-27,9.341624759490706e-18
289387093579.1851,8.980180403460325e-18,8.362501507165603e-27,1.133301951130121e-17
319822199890.15125,1.08962720521059e-17,1.0152950242755806e-26,1.37492626728971e-17
353458194273.57166,1.3219388351697326e-17,1.2325616776389014e-26,1.6678201032082282e-17
390631717066.68396,1.6039354366227124e-17,1.4965096102714472e-26,2.0232904673250835e-17
431714813380.0536,1.94591203545979e-17,1.8168972504453952e-26,2.4542774284278596e-17
477118656650.091,2.3610995578543663e-17,2.2062089505882193e-26,2.9774285460569987e-17
527297663801.0006,2.864721463413674e-17,2.6789105595679626e-26,3.6118675652135065e-17
582754043202.0963,3.476023017052728e-17,3.253208424712561e-26,4.3817951271163186e-17
644042820937.9562,4.217459903430137e-17,3.950496150029428e-26,5.315403122444524e-17
711777395696.0306,5.117463209555478e-17,4.797726354299785e-26,6.448425972195816e-17
786635677866.8762,6.209123244359615e-17,5.826508324815916e-26,7.822380998876669e-17
869366874299.1947,7.534037012299371e-17,7.076379474875407e-26,9.489518932835542e-17
960798986613.7976,9.140801283924787e-17,8.593895539185421e-26,1.1510771485349244e-16
1061847098122.1222,1.1090539039753345e-16,1.0437301978419176e-25,1.396287073992635e-16
1173522532287.5876,1.3454711229881477e-16,1.2675255298703307e-25,1.6935355661267373e-16
1296942974390.7327,1.6323172086633504e-16,1.5393604641635805e-25,2.054095782928902e-16
1433343657699.1667,1.98010365232416e-16,1.869363209806258e-25,2.4911294191601513e-16
1584089726097.296,2.4020342414326916e-16,2.270183334644724e-25,3.021191502719803e-16
1750689896905.149,2.9135763048990136e-16,2.756767312571014e-25,3.663635817504774e-16
1934811560628.4236,3.5341537621173426e-16,3.3477741578138845e-25,4.44280080124138e-16
2138297468763.0928,4.2865378174853256e-16,4.0652712388004565e-25,5.387160015034152e-16
2363184176671.7397,5.199282773949813e-16,4.936764460091669e-25,6.532469078495592e-16
2611722426114.1514,6.30580106499532e-16,5.994733362030691e-25,7.920476919310152e-16
2886399671427.3335,7.647966213174796e-16,7.279632938174943e-25,9.603581013725397e-16
3189964974804.593,9.274878683794357e-16,8.839334923565416e-25,1.1643088880776722e-15
3525456519833.9536,1.1248043376625612e-15,1.0733430465692348e-24,1.411591120050601e-15
3896232018660.667,1.3639585062571852e-15,1.3032448135215855e-24,1.7112039881693098e-15
4306002317098.9453,1.6539833063568689e-15,1.5824154670521952e-24,2.0744353905944732e-15
4758868534024.105,2.005472262093331e-15,1.921244174668732e-24,2.5144938967790407e-15
5259363106748.7295,2.4316920298265262e-15,2.3326568740482057e-24,3.0479470927567745e-15
5812495153178.688,2.9482000640573424e-15,2.831953670208807e-24,3.694179705869467e-15
6423800604748.74,3.5744753565952745e-15,3.4381640881921536e-24,4.4775017859648806e-15
7099397611885.069,4.333350256863836e-15,4.173803309922483e-24,5.4263440545428486e-15
7846047776511.079,5.253403369578667e-15,5.066862349329014e-24,6.5763509544990476e-15
8671223824432.141,6.368104729602541e-15,6.150431310032929e-24,7.969173087085666e-15
9583184394887.102,7.719328351308951e-15,7.465623888844544e-24,9.657006605357482e-15
10591056695785.596,9.356067649877552e-15,9.06099402256912e-24,1.1700783795967424e-14
11704927851872.605,1.1339580488855638e-14,1.0996824180316467e-23,1.4176820851426365e-14
12935945860063.262,1.3741412275865745e-14,1.3344176113021578e-23,1.71740490237354e-14
14296431162342.984,1.6650915963181715e-14,1.619116478386432e-23,2.080372917759579e-14
15799999952891.889,2.017217831718838e-14,1.964138507236439e-23,2.5195176584136455e-14
17461700453532.74,2.443496339873909e-14,2.3823046352883835e-23,3.050989672013455e-14
19298163521392.727,2.9589848474426495e-14,2.888629346050066e-23,3.6934877991931984e-14
21327769096111.566,3.582402960733453e-14,3.501639360821675e-23,4.470300990217379e-14
23570830152455.035,4.335349656146621e-14,4.242908221849359e-23,5.4082398463374705e-14
26049795999393.875,5.244564903160763e-14,5.138939392424515e-23,6.540559430951915e-14
28789476960333.508,6.340646973917831e-14,6.220341872404053e-23,7.90522674001825e-14
31817292683169.473,7.661225727055926e-14,7.52445943133818e-23,9.549025673004049e-14
35163546565339.98,9.248828936473545e-14,9.093896008532801e-23,1.1524706831637307e-13
38861729040412.56,1.1155241580845638e-13,1.0980094439873022e-22,1.3896636877892614e-13
42948852761599.79,1.3437885773213393e-13,1.3240659964088339e-22,1.6736016455610387e-13
47465823036833.125,1.6165608372860672e-13,1.594403341504711e-22,2.0128404501627598e-13
52457847222833.06,1.9412457143700547e-13,1.9164611661985524e-22,2.416558206643503e-13
57974887175530.45,2.3254401687447195e-13,2.2977884790320522e-22,2.8941969467032105e-13
64072159285113.07,2.7696626651385964e-13,2.7389630610006126e-22,3.4463818026782495e-13
70810687100217.64,3.2675645404542744e-13,3.2335788572939805e-22,4.065252050310518e-13
78257912072114.92,3.812364120645525e-13,3.7749477709931098e-22,4.742363304940047e-13
86488368531422.52,4.398060540541685e-13,4.356999349571391e-22,5.470290176388633e-13
95584429652737.14,5.021759260591515e-13,4.976979256008572e-22,6.245397697031955e-13
105637131873052.64,5.683114143748295e-13,5.63445356880016e-22,7.067283234167039e-13
116747086015019.98,6.38532079373822e-13,6.3328166038581105e-22,7.939851425230871e-13
129025484233876.22,7.138085101897954e-13,7.081658096198187e-22,8.875182277709785e-13
142595212865907.9,7.951221028174135e-13,7.891062913534831e-22,9.885371342266564e-13
157592082316207.8,8.842236276130454e-13,8.778381468146527e-22,1.099219279972726e-12
174166186294856.3,9.830211061538696e-13,9.763048295490465e-22,1.2219215616201838e-12
192483404005220.94,1.088725310987822e-12,1.0816949399190319e-21,1.3531895141855866e-12
212727060318775.75,1.1703291196867199e-12,1.1630457492723584e-21,1.4545316605409922e-12
235099760552034.94,1.2626259475488546e-12,1.255119683528607e-21,1.5691339493319427e-12
259825418208657.28,1.3451336822347616e-12,1.3374880265856142e-21,1.6715630508069793e-12
287151495981050.75,1.4122573667562687e-12,1.4045131833704622e-21,1.7548890109138348e-12
317351482440173.94,1.4552287752752607e-12,1.4474881949787935e-21,1.8082123165453336e-12
350727629201074.75,1.4715777101739475e-12,1.4638866752619987e-21,1.82848476712435e-12
387613975958646.9,1.4605473102156112e-12,1.453019510523175e-21,1.814746496005245e-12
428379693669169.7,1.4354626046334515e-12,1.4281410308980907e-21,1.7835546035746148e-12
473432779337320.75,1.3960498555334843e-12,1.3890473583976353e-21,1.7345481264891113e-12
523224139387333.06,1.3563581445788586e-12,1.3497040530626902e-21,1.685186547150195e-12
578252102486039.2,1.3194519445848626e-12,1.3132452361644379e-21,1.6392515002537051e-12
639067406983669.2,1.2814646186097243e-12,1.275715621180977e-21,1.5919717127192569e-12
706278712888365.0,1.247341822094726e-12,1.2421253648579205e-21,1.549464835669246e-12
780558693540120.9,1.2127005392508493e-12,1.2080023407018779e-21,1.5063189130915955e-12
862650767951664.6,1.0524848862858e-12,1.0483444694704457e-21,1.307331048331742e-12
953376541195803.4,9.22499071866265e-13,9.188802837764879e-22,1.1458675513235862e-12
1053644027305151.2,7.92260671615432e-13,7.891710517378084e-22,9.840883817139936e-13
1164456736981756.2,6.65197971062433e-13,6.625869619118977e-22,8.2626546650561e-13
1286923721069500.2,5.368868312933176e-13,5.347333714544529e-22,6.66899790744273e-13
1422270670307710.0,4.1346297468752156e-13,4.1170863171163733e-22,5.136167337932832e-13
1571852182456038.2,3.023038025357213e-13,3.009096374233788e-22,3.755652911948532e-13
1737165319564149.5,2.150423150908313e-13,2.139517932330424e-22,2.671866166386108e-13
1919864591071886.0,1.53351726511301e-13,1.5252048288454255e-22,1.905533788329388e-13
2121778512695843.2,1.1062615028669995e-13,1.1000515627942957e-22,1.3746948665609082e-13
2344927906829250.5,8.132315878545424e-14,8.087154768896677e-23,1.0105465381279392e-13
2591546127611688.5,5.9060952866431e-14,5.874043564187523e-23,7.338867146091573e-14
2864101413087998.5,4.260336472731905e-14,4.2382329933762804e-23,5.2935498930316826e-14
3165321588164222.0,3.113730159624648e-14,3.0989314691506007e-23,3.868455830146747e-14
3498221365596118.5,2.2673902608505713e-14,2.257799280188605e-23,2.8166131396877575e-14
3866132518247714.0,1.598591435400462e-14,1.592591410715519e-23,1.9855808215310907e-14
4272737224593940.0,1.0680951033227822e-14,1.0644801682033868e-23,1.3265409358933318e-14
4722104921200477.0,6.665804824870942e-15,6.644926419426867e-24,8.278209029837882e-15
5218733031012664.0,3.829749660155011e-15,3.8182185077251644e-24,4.7559929848792945e-15
5767591975075971.0,2.0478836729714676e-15,2.0418311908380002e-24,2.5431392037175444e-15
6374174918180457.0,1.021478926398535e-15,1.0184690923862572e-24,1.2685080998114466e-15
7044552746300259.0,4.618640245845832e-16,4.604554388950918e-25,5.735732670039181e-16
7785434826060980.0,1.8380373974729254e-16,1.8318521858020553e-25,2.282772432674174e-16
8604236154335930.0,6.435034698371987e-17,6.409742322390406e-26,7.993174398802652e-17
9509151570027116.0,2.0545624306513667e-17,2.0449627689814802e-26,2.5525054056362553e-17
1.050923777076737e+16,5.9407950886384514e-18,5.907237685054914e-27,7.382370303216094e-18
1.1614503955394242e+16,1.568265364838074e-18,1.557482356810612e-27,1.949402536610701e-18
1.283601199937629e+16,3.675768975410224e-19,3.6441437276026216e-28,4.571033576044939e-19
1.4185987165780718e+16,7.221974925083905e-20,7.137345604228792e-29,8.987817465506327e-20
1.5677940459815226e+16,1.233343560290719e-20,1.2128356154227372e-29,1.536759279538906e-20
1.7326803851509358e+16,1.7945013087377466e-21,1.7496057145695343e-30,2.2405751560570307e-21
1.914907971988926e+16,2.2469599954331545e-22,2.158853235119876e-31,2.8152719830188374e-22
2.1163006014333772e+16,2.4538714755063252e-23,2.3001334401314923e-32,3.092141795122134e-23
2.3388738786101696e+16,2.440609514268843e-24,2.2045958751483152e-33,3.1009049155256058e-24
2.5848553916867508e+16,2.3341536630690797e-25,2.0199017673205182e-34,2.9927835800646496e-25
2.8567070063232384e+16,2.2286840976744024e-26,1.870290851317685e-35,2.8754144772776027e-26
3.157149504851387e+16,2.038257596467503e-27,1.6939203770413322e-36,2.6347619663988625e-27
3.4891898167786828e+16,1.6645916826187713e-28,1.3896114292395511e-37,2.1497802945246443e-28
3.856151113149496e+16,1.1296313290819978e-29,9.510264242997413e-39,1.4564024683345917e-29
4.261706065957858e+16,6.083113253624939e-31,5.15936076265139e-40,7.830949098918455e-31
4.709913605483209e+16,2.478900638655519e-32,2.1123070649875907e-41,3.1880766438363275e-32
5.2052595434288504e+16,7.370259596104635e-34,6.291912370591963e-43,9.475082664023665e-34
5.752701468433297e+16,1.5220247326520243e-35,1.2988300780043326e-44,1.9568241250965535e-35
6.357718363283562e+16,2.0965420777118004e-37,1.785083287392506e-46,2.6966755403953084e-37
7.026365440416483e+16,1.8228168994724984e-39,1.5468185689929934e-48,2.3461804806775043e-39
7.765334744520098e+16,9.543408468443273e-42,8.06318399616724e-51,1.2294254589209478e-41
8.582022128765982e+16,2.8249201213101373e-44,2.3754571750392504e-53,3.6426505732464504e-44
9.484601274993838e+16,4.46847371246447e-47,3.737799702890715e-56,5.768002600740947e-47
1.0482105498666413e+17,3.5095777943950526e-50,2.9202597737823676e-59,4.534971959330835e-50
1.158451815732693e+17,1.2777871068457137e-53,1.0573475713910436e-62,1.6529208796100877e-53
1.280287256739703e+17,1.9768302501701592e-57,1.6270103851293019e-66,2.559884263022117e-57
1.414936242931567e+17,1.1948634961805709e-61,9.780784260046785e-71,1.5489205050733986e-61
1.5637463866191898e+17,2.5396584795634475e-66,2.0678705179672183e-75,3.2955799610297303e-66
1.728207029737409e+17,1.7111806166243558e-71,1.3857428591755803e-80,2.2228268044960857e-71
1.9099641496796765e+17,3.222523637686529e-77,2.5962958414150798e-86,4.190163937361806e-77
2.1108368327930646e+17,1.4918757046364647e-83,1.1957804764447207e-92,1.941744626593613e-83
2.3328354804057984e+17,1.456981976222584e-90,1.1621781915588741e-99,1.8980576369838114e-90
2.5781819295995242e+17,2.5629477336958324e-98,2.0345160384923032e-107,3.341856783783774e-98
2.8493316901015552e+17,6.743894788257296e-107,5.329445581386287e-116,8.800797805952345e-107
3.1489985198515654e+17,2.1859025066200836e-116,1.71977853600271e-125,2.854955379029662e-116
3.480181585203215e+17,6.96358077106465e-127,5.456326019771274e-136,9.10180783756897e-127
3.846195477588992e+17,1.7178745981506976e-138,1.3406743253011747e-147,2.2470064279781153e-138
4.2507033870654355e+17,2.493487616166686e-151,1.9389473621380725e-160,3.263670619847394e-151
4.6977537647503795e+17,1.5897441663292992e-165,1.2318799990910418e-174,2.0820973866115335e-165
5.191820841082496e+17,3.186567421624365e-181,2.4615899811083084e-190,4.1757971170324387e-181
5.737849405423432e+17,1.4035594303572317e-198,1.0810541461524987e-207,1.8402434283542425e-198
6.341304295171608e+17,9.039758709072671e-218,6.944990306958454e-227,1.1857601388597858e-217
7.008225089691863e+17,5.4902400576209356e-239,4.2081741055161265e-248,7.2046000484318425e-239
7.745286556455556e+17,1.914116428366422e-262,1.4643191713651644e-271,2.51265309311256e-262
8.55986545435694e+17,2.239202652825602e-288,1.7101377387630785e-297,2.940245774558286e-288
9.460114362795694e+17,4.799211e-317,0.0,6.303089e-317
1.0455043275431552e+18,0.0,0.0,0.0
1.155460977522929e+18,0.0,0.0,0.0
1.2769818693296026e+18,0.0,0.0,0.0
1.4112832248929505e+18,0.0,0.0,0.0
1.559709177319705e+18,0.0,0.0,0.0
1.7237452234294339e+18,0.0,0.0,0.0
1.9050330911060157e+18,0.0,0.0,0.0
2.1053871702621274e+18,0.0,0.0,0.0
2.32681267186328e+18,0.0,0.0,0.0
2.5715256967531955e+18,0.0,0.0,0.0
2.8419754151358525e+18,0.0,0.0,0.0
3.1408685786941036e+18,0.0,0.0,0.0
3.4711966106703217e+18,0.0,0.0,0.0
3.836265545035587e+18,0.0,0.0,0.0
4.239729114388961e+18,0.0,0.0,0.0
4.685625317741307e+18,0.0,0.0,0.0
