Energy,Neutrino Flux Best Fit,Neutrino Flux Min,Neutrino Flux Max
7570621468.926554,7.314533443509987e-31,7.314533443509987e-31,2.2050432197704496e-21
8366830679.216768,8.933336781568045e-31,8.933336781568045e-31,2.693051640974897e-21
9246777943.13349,1.0910293394993131e-30,1.0910293394993131e-30,3.2890310346129784e-21
10219270068.654488,1.3324598216742377e-30,1.3324598216742377e-30,4.016856451227711e-21
11294040083.837866,1.6272938851779603e-30,1.6272938851779603e-30,4.905676690845568e-21
12481844648.238258,1.987335122515259e-30,1.987335122515259e-30,5.99107680099714e-21
13794571709.171085,2.426992149530092e-30,2.426992149530092e-30,7.316495764548957e-21
15245359480.284964,2.963851838639855e-30,2.963851838639855e-30,8.93495492466913e-21
16848727933.219814,3.619377945411725e-30,3.619377945411725e-30,1.0911164574009438e-20
18620724118.36335,4.419762225229432e-30,4.419762225229432e-30,1.3324090460719093e-20
20579082769.124973,5.3969608433371236e-30,5.3969608433371236e-30,1.6270079196080775e-20
22743403797.108593,6.589955723319908e-30,6.589955723319908e-30,1.9866662215833143e-20
25135348454.615677,8.04628865226716e-30,8.04628865226716e-30,2.425718264658511e-20
27778856127.738914,9.823925682246305e-30,9.823925682246305e-30,2.9616418821572685e-20
30700383929.78455,1.1993520870509383e-29,1.1993520870509383e-29,3.6157412990653204e-20
33929171492.954838,1.4641161926859952e-29,1.4641161926859952e-29,4.4139754722633495e-20
37497533608.41499,1.7871692356844495e-29,1.7871692356844495e-29,5.3879605185568866e-20
41441183643.58446,2.1812686716982054e-29,2.1812686716982054e-29,6.576169657599322e-20
45799590973.52174,2.661936753901336e-29,2.661936753901336e-29,8.02541703425911e-20
50616376003.696175,3.2480412662117686e-29,3.2480412662117686e-29,9.79261132252473e-20
55939746737.66707,3.962503688587744e-29,3.962503688587744e-29,1.1946894168203308e-19
61822981258.98674,4.8331367084917335e-29,4.8331367084917335e-29,1.4572170728193667e-19
68324960956.16793,5.893659390673102e-29,5.893659390673102e-29,1.777017742236326e-19
75510759827.4109,7.184889721794618e-29,7.184889721794618e-29,2.1664088379531176e-19
83452295763.04944,8.75603180274777e-29,8.75603180274777e-29,2.640241856038962e-19
92229050323.9698,1.0665437974444917e-28,1.0665437974444917e-28,3.2161391332051324e-19
101928864219.78682,1.2982207546380753e-28,1.2982207546380753e-28,3.914980815609345e-19
112648816448.18983,1.5788091420704058e-28,1.5788091420704058e-28,4.761485269928842e-19
124496195894.18109,1.917962784813526e-28,1.917962784813526e-28,5.78486156810064e-19
137589575113.2978,2.327131280371711e-28,2.327131280371711e-28,7.0197725730334565e-19
152059997045.60156,2.819857354030982e-28,2.819857354030982e-28,8.5072450561742815e-19
168052286537.46774,3.4122421103437812e-28,3.4122421103437812e-28,1.029608322774042e-18
185726499797.32504,4.1233776150337225e-28,4.1233776150337225e-28,1.2444193291544588e-18
205259526291.98633,4.975917864411376e-28,4.975917864411376e-28,1.5020326905972348e-18
226846859115.8871,5.996767254610933e-28,5.996767254610933e-28,1.8106184013825153e-18
250704551551.68192,7.21795711726392e-28,7.21795711726392e-28,2.1799085903715166e-18
277071379404.11584,8.676461348315248e-28,8.676461348315248e-28,2.621152240138848e-18
306211230748.53284,1.0410848091118283e-27,1.0410848091118283e-27,3.146134667008938e-18
338415747011.43005,1.2479951954473752e-27,1.2479951954473752e-27,3.772721796181048e-18
374007241815.87823,1.4937622932228853e-27,1.4937622932228853e-27,4.517396771138161e-18
413341926804.5948,1.7866417322763174e-27,1.7866417322763174e-27,5.4052606763523645e-18
456813476725.79144,2.134175588223241e-27,2.134175588223241e-27,6.4594366066766144e-18
504856969462.3712,2.547830583512416e-27,2.547830583512416e-27,7.714843118523709e-18
557953240437.6178,3.0380984664312165e-27,3.0380984664312165e-27,9.203705906907529e-18
616633694977.7249,3.621281903996522e-27,3.621281903996522e-27,1.0975715429722921e-17
681485626794.9109,4.311781364285419e-27,4.311781364285419e-27,1.3075206534239642e-17
753158095820.2903,5.132558918109584e-27,5.132558918109584e-27,1.5572248228647043e-17
832368424213.8165,6.1036525333223475e-27,6.1036525333223475e-27,1.8528643180397686e-17
919909375565.5642,7.25581988371127e-27,7.25581988371127e-27,2.203850134211363e-17
1016657089140.1898,8.616647821584863e-27,8.616647821584863e-27,2.618709490640694e-17
1123579848573.1787,1.0229537150050048e-26,1.0229537150050048e-26,3.110735913471459e-17
1241747772778.918,1.2132252581721714e-26,1.2132252581721714e-26,3.691630589391345e-17
1372343526060.4668,1.4383496690162367e-26,1.4383496690162367e-26,4.379418163461239e-17
1516674154611.4185,1.7033874131122823e-26,1.7033874131122823e-26,5.1898304773289603e-17
1676184167873.5073,2.0163708833935385e-26,2.0163708833935385e-26,6.147582036338098e-17
1852469995672.629,2.384095274774349e-26,2.384095274774349e-26,7.273865867545605e-17
2047295965825.1113,2.817521463820619e-26,2.817521463820619e-26,8.602479330195618e-17
2262611962123.5073,3.3257501002195054e-26,3.3257501002195054e-26,1.0161899748168951e-16
2500572939428.9805,3.9236357408277563e-26,3.9236357408277563e-26,1.1998039494171586e-16
2763560491183.8457,4.62334472726278e-26,4.62334472726278e-26,1.4149094580558686e-16
3054206685199.238,5.445037205591621e-26,5.445037205591621e-26,1.6677516699536862e-16
3375420406274.424,6.404985177890231e-26,6.404985177890231e-26,1.963454964290077e-16
3730416469293.579,7.53032544579183e-26,7.53032544579183e-26,2.310447045929552e-16
4122747794173.703,8.842042653174908e-26,8.842042653174908e-26,2.7153703324909493e-16
4556340964681.301,1.0375823774459332e-25,1.0375823774459332e-25,3.1893474533029653e-16
5035535527002.513,1.2158845321568772e-25,1.2158845321568772e-25,3.741021357517492e-16
5565127421379.91,1.4238218179902965e-25,1.4238218179902965e-25,4.385123935996809e-16
6150416981494.3955,1.6648665786522317e-25,1.6648665786522317e-25,5.132757825516249e-16
6797261981986.218,1.9451951945475824e-25,1.9451951945475824e-25,6.003305859432103e-16
7512136265032.402,2.269199658558816e-25,2.269199658558816e-25,7.010892635378154e-16
8302194532735.223,2.644942569131163e-25,2.644942569131163e-25,8.180912460954123e-16
9175343953785.615,3.0779339682701567e-25,3.0779339682701567e-25,9.53119095089378e-16
10140323301065.086,3.5786483376724698e-25,3.5786483376724698e-25,1.1094840693279578e-15
11206790412221.99,4.153911208926233e-25,4.153911208926233e-25,1.289408247273804e-15
12385418848556.736,4.81724518855974e-25,4.81724518855974e-25,1.4971826010714014e-15
13688004719610.873,5.5769252230316445e-25,5.5769252230316445e-25,1.7355208170641174e-15
15127584742596.156,6.450193206514021e-25,6.450193206514021e-25,2.0099171514875162e-15
16718566718242.146,7.446929793092224e-25,7.446929793092224e-25,2.3236362135384438e-15
18476873728908.65,8.589145368188825e-25,8.589145368188825e-25,2.683717271245926e-15
20420103502145.78,9.888486294488976e-25,9.888486294488976e-25,3.0940350188374646e-15
22567704534666.19,1.1372950099520975e-24,1.1372950099520975e-24,3.563572515691978e-15
24941170739436.984,1.3056028389178217e-24,1.3056028389178217e-24,4.096845273418145e-15
27564256563985.086,1.4973268589629836e-24,1.4973268589629836e-24,4.7052880113665e-15
30463214732892.086,1.713998328448828e-24,1.713998328448828e-24,5.394046875000476e-15
33667058993885.93,1.9601216604744237e-24,1.9601216604744237e-24,6.1776367911530146e-15
37207854497179.89,2.2373842545673474e-24,2.2373842545673474e-24,7.061735767602145e-15
41121038714273.39,2.5515051671186206e-24,2.5515051671186206e-24,8.0647816031052e-15
45445776108077.84,2.90428556569957e-24,2.90428556569957e-24,9.192804976880181e-15
50225350104024.7,3.302923622488997e-24,3.302923622488997e-24,1.046901192992544e-14
55507596285135.78,3.74915369615653e-24,3.74915369615653e-24,1.1899147215538382e-14
61345381146615.91,4.2519727883549216e-24,4.2519727883549216e-24,1.3512196049101834e-14
67797131201505.99,4.8127398147644324e-24,4.8127398147644324e-24,1.531252492595681e-14
74927417732863.62,5.442592942920429e-24,5.442592942920429e-24,1.7335976402247957e-14
82807603044866.42,6.141952672485659e-24,6.141952672485659e-24,1.9583587768334957e-14
91516554680738.78,6.924424221257981e-24,6.924424221257981e-24,2.2099089495699182e-14
101141434755632.27,7.788526817887282e-24,7.788526817887282e-24,2.4876913111152263e-14
111778572304370.47,8.750637422118384e-24,8.750637422118384e-24,2.7969653117409377e-14
123534427374806.23,9.805845582161193e-24,9.805845582161193e-24,3.136000478522571e-14
136526656515763.97,1.0973585707225428e-23,1.0973585707225428e-23,3.5110374002945414e-14
150885290323325.4,1.2243148094301027e-23,1.2243148094301027e-23,3.918388708251946e-14
166754034830740.12,1.3637297767889976e-23,1.3637297767889976e-23,4.365373776556536e-14
184291709766707.8,1.5136020795025265e-23,1.5136020795025265e-23,4.845206248301775e-14
203673838076603.25,1.6765820181103573e-23,1.6765820181103573e-23,5.3664350252611596e-14
225094402615110.3,1.849245090210691e-23,1.849245090210691e-23,5.917590990706509e-14
248767787591830.84,2.0347026381108925e-23,2.0347026381108925e-23,6.508764461842104e-14
274930924200511.25,2.2274525151074796e-23,2.2274525151074796e-23,7.121727248975503e-14
303845661906065.75,2.4312646953817196e-23,2.4312646953817196e-23,7.768786100309473e-14
335801389122029.44,2.6377460082329983e-23,2.6377460082329983e-23,8.422408032912996e-14
371117929507070.9,2.8517325638118773e-23,2.8517325638118773e-23,9.098461946450848e-14
410148742867662.9,3.061005163859148e-23,3.061005163859148e-23,9.75722633297661e-14
453284462702627.56,3.272211020358405e-23,3.272211020358405e-23,1.0420532790902216e-13
500956805794490.25,3.468333486863204e-23,3.468333486863204e-23,1.1033527663412509e-13
553642892976140.56,3.6590423697470675e-23,3.6590423697470675e-23,1.1627833417744983e-13
611870024316498.5,3.821661389709565e-23,3.821661389709565e-23,1.213091854466369e-13
676220956516833.2,3.970631964312994e-23,3.970631964312994e-23,1.258962780508378e-13
747339735335700.9,4.077069716760456e-23,4.077069716760456e-23,1.291223170390368e-13
825938141415369.2,4.1623801835764237e-23,4.1623801835764237e-23,1.316748858193876e-13
912802814021717.5,4.191464324008615e-23,4.191464324008615e-23,1.3244664553761562e-13
1008803123994415.6,4.194925136885835e-23,4.194925136885835e-23,1.3241100868718106e-13
1114899874702489.4,4.1321654634681013e-23,4.1321654634681013e-23,1.3029500758377904e-13
1232154918087374.2,4.044458915928486e-23,4.044458915928486e-23,1.2739971651739553e-13
1361741782034049.8,3.887226102586389e-23,3.887226102586389e-23,1.2233545739059814e-13
1504957415432538.8,3.712042413540775e-23,3.712042413540775e-23,1.167153653193949e-13
1663235168478332.2,3.4726218422352276e-23,3.4726218422352276e-23,1.0910481604343558e-13
1838159138122902.2,3.2277451400175687e-23,3.2277451400175687e-23,1.013300710757027e-13
2031480022248428.2,2.93233848546957e-23,2.93233848546957e-23,9.200197279774762e-14
2245132641240635.2,2.646571326941346e-23,2.646571326941346e-23,8.29793319181603e-14
2481255302321516.0,2.3298674915204258e-23,2.3298674915204258e-23,7.301841660331687e-14
2742211200446737.5,2.0365955472450527e-23,2.0365955472450527e-23,6.379059872452302e-14
3030612069955043.5,1.7336646515047534e-23,1.7336646515047534e-23,5.428658271192733e-14
3349344323683353.0,1.4634358631576954e-23,1.4634358631576954e-23,4.580287666823234e-14
3701597941156595.5,1.201931017171352e-23,1.201931017171352e-23,3.761094143298204e-14
4090898394974960.0,9.765234268958811e-24,9.765234268958811e-24,3.054488084455875e-14
4521141934928668.0,7.718156119570735e-24,7.718156119570735e-24,2.413757582359999e-14
4996634582975425.0,6.0129962227510145e-24,6.0129962227510145e-24,1.8797596153176164e-14
5522135229355479.0,4.558179630627379e-24,4.558179630627379e-24,1.424616648438477e-14
6102903261164680.0,3.39070566433537e-24,3.39070566433537e-24,1.0592793540726608e-14
6744751200068231.0,2.453910257452468e-24,2.453910257452468e-24,7.663174217132715e-15
7454102875971230.0,1.7341185149053207e-24,1.7341185149053207e-24,5.412405921310283e-15
8238057718867448.0,1.1908409783212561e-24,1.1908409783212561e-24,3.714468155476679e-15
9104461812320910.0,7.944511024043612e-25,7.944511024043612e-25,2.4761515830764143e-15
1.0061986419707388e+16,5.136085602682429e-25,5.136085602682429e-25,1.599340893536389e-15
1.1120214769132708e+16,3.207620722107308e-25,3.207620722107308e-25,9.977462770974186e-16
1.2289737965600768e+16,1.9316778795928744e-25,1.9316778795928744e-25,6.000791807525868e-16
1.3582260990352136e+16,1.1155948873853897e-25,1.1155948873853897e-25,3.4605607886266276e-16
1.501071984825052e+16,6.164610352156662e-26,6.164610352156662e-26,1.9090827045466195e-16
1.6589411035667398e+16,3.2356345882935296e-26,3.2356345882935296e-26,1.0002504131524622e-16
1.8334134624622812e+16,1.6080712580604243e-26,1.6080712580604243e-26,4.9617408093988205e-17
2.0262352395216904e+16,7.504759333352417e-27,7.504759333352417e-27,2.3112089744739535e-17
2.2393362598994156e+16,3.2770145751967564e-27,3.2770145751967564e-27,1.0073057156328808e-17
2.474849310233123e+16,1.3272474838207924e-27,1.3272474838207924e-27,4.072564160576048e-18
2.735131484289228e+16,4.969825229672235e-28,4.969825229672235e-28,1.5225274550170015e-18
3.022787773549534e+16,1.7053462530147047e-28,1.7053462530147047e-28,5.21757601558086e-19
3.3406971388415804e+16,5.353423853545311e-29,5.353423853545311e-29,1.6363040421681422e-19
3.6920413239462376e+16,1.5248694339572292e-29,1.5248694339572292e-29,4.6583691716189394e-20
4.0803366995588904e+16,3.9440847920196345e-30,3.9440847920196345e-30,1.2047325871300147e-20
4.509469456309264e+16,9.212822329301742e-31,9.212822329301742e-31,2.8148104086736615e-21
4.983734499063399e+16,1.9479574525980654e-31,1.9479574525980654e-31,5.9536703670846115e-22
5.507878431775172e+16,3.7201067775317856e-32,3.7201067775317856e-32,1.1371006048544287e-22
6.087147063094023e+16,6.405594950839573e-33,6.405594950839573e-33,1.956607466258832e-23
6.727337908181101e+16,9.886148189428384e-34,9.886148189428384e-34,3.0142767271052322e-24
7.434858212189626e+16,1.3479418100829047e-34,1.3479418100829047e-34,4.097671460816618e-25
8.21678907612786e+16,1.5956895495591943e-35,1.5956895495591943e-35,4.832265510219961e-26
9.08095632689819e+16,1.5951511316751902e-36,1.5951511316751902e-36,4.810833453882843e-27
1.0036008840802949e+17,1.3116552913651294e-37,1.3116552913651294e-37,3.9404239434160226e-28
1.1091505104405488e+17,8.556747997894422e-39,8.556747997894422e-39,2.5621262667317213e-29
1.2258008879076562e+17,4.293471109590904e-40,4.293471109590904e-40,1.2822693010779782e-30
1.3547194926668456e+17,1.5882694490256799e-41,1.5882694490256799e-41,4.734686993217749e-32
1.4971965854455952e+17,4.1831369561645214e-43,4.1831369561645214e-43,1.2454578734829923e-33
1.6546581248766358e+17,7.474061195475783e-45,7.474061195475783e-45,2.223600816259524e-35
1.8286800389712374e+17,8.702985814952807e-47,8.702985814952807e-47,2.5882233960901288e-37
2.0210039975364563e+17,6.248727037742371e-49,6.248727037742371e-49,1.8581277560309623e-39
2.2335548433919146e+17,2.6374855379106283e-51,2.6374855379106283e-51,7.843558249900161e-42
2.4684598568437552e+17,6.136479278864277e-54,6.136479278864277e-54,1.8253282228838887e-44
2.7280700462208982e+17,7.426190616983111e-57,7.426190616983111e-57,2.2097111141018e-47
3.014983677556618e+17,4.3333721411014035e-60,4.3333721411014035e-60,1.2899494751266945e-50
3.332072278908345e+17,1.1353671755262387e-63,1.1353671755262387e-63,3.381358974087137e-54
3.682509379575543e+17,1.2203895104303075e-67,1.2203895104303075e-67,3.6364572051183075e-58
4.069802271847692e+17,4.928429360033295e-72,4.928429360033295e-72,1.4693976652809307e-62
4.497827113164277e+17,6.708975656769843e-77,6.708975656769843e-77,2.00147929095808e-67
4.970867720001293e+17,2.7615768130982305e-82,2.7615768130982305e-82,8.244089271826396e-73
5.493658441746438e+17,3.015057285486039e-88,3.015057285486039e-88,9.007100963252532e-79
6.07143154365893e+17,7.636120111537529e-95,7.636120111537529e-95,2.282945803463099e-85
6.709969573138995e+17,3.827650258307674e-102,3.827650258307674e-102,1.1452555217377271e-92
7.415663233405695e+17,3.2197915252859784e-110,3.2197915252859784e-110,9.64224344013518e-101
8.19557534380278e+17,3.7485920703563306e-119,3.7485920703563306e-119,1.123604248481627e-109
9.057511526868673e+17,4.931761019911337e-129,4.931761019911337e-129,1.4797169178912293e-119
1.0010098329630191e+18,5.801278618772083e-140,5.801278618772083e-140,1.7423964905210105e-130
1.106286956098492e+18,4.757336971889009e-152,4.757336971889009e-152,1.4304551960219458e-142
1.2226361709264858e+18,2.0454995990930513e-165,2.0454995990930513e-165,6.157614369012456e-156
1.351221939495316e+18,3.3988221476355117e-180,3.3988221476355117e-180,1.0244449224195446e-170
1.4933311913959977e+18,1.542843890542015e-196,1.542843890542015e-196,4.656343979056243e-187
1.650386203786118e+18,1.3165945155950522e-214,1.3165945155950522e-214,3.9791134351747837e-205
1.8239588360176827e+18,1.3842491579894942e-234,1.3842491579894942e-234,4.1896284794019344e-225
2.015786261333855e+18,1.134657664736392e-256,1.134657664736392e-256,3.439578468308725e-247
2.227788353082609e+18,4.332455125538191e-281,4.332455125538191e-281,1.3154331960661976e-271
2.4620868994545454e+18,4.4016202526756447e-308,4.4016202526756447e-308,1.3387438243500572e-298
2.7210268390522086e+18,0.0,0.0,0.0
3.007199729823801e+18,0.0,0.0,0.0
3.323469686246214e+18,0.0,0.0,0.0
3.673002044345305e+18,0.0,0.0,0.0
4.059295041442837e+18,0.0,0.0,0.0
4.4862148276913106e+18,0.0,0.0,0.0
4.958034159804178e+18,0.0,0.0,0.0
5.479475164241213e+18,0.0,0.0,0.0
6.055756597837159e+18,0.0,0.0,0.0
6.692646078874363e+18,0.0,0.0,0.0
7.396517811344974e+18,0.0,0.0,0.0
