Energy,Neutrino Flux Best Fit,Neutrino Flux Min,Neutrino Flux Max
11916666666.666668,1.051963371820925e-30,1.051963371820925e-30,1.1569156515889996e-22
13169953440.40147,1.2848533731928572e-30,1.2848533731928572e-30,1.4130401624291107e-22
14555049534.742025,1.569299062954331e-30,1.569299062954331e-30,1.7258636940065538e-22
16085817456.947372,1.9167123203523464e-30,1.9167123203523464e-30,2.1079365379250843e-22
17777577646.891808,2.341030553094492e-30,2.341030553094492e-30,2.5745864263729216e-22
19647261809.17653,2.859275401454793e-30,2.859275401454793e-30,3.1445329541789315e-22
21713582371.320236,3.4922349474747655e-30,3.4922349474747655e-30,3.8406378183237768e-22
23997219764.023182,4.2652966897981094e-30,4.2652966897981094e-30,4.690820851190612e-22
26521029397.86858,5.209464543495782e-30,5.209464543495782e-30,5.729178419456153e-22
29310270407.953655,6.362600435047998e-30,6.362600435047998e-30,6.997348798298098e-22
32392858455.803623,7.770939968864615e-30,7.770939968864615e-30,8.546178921903316e-22
35799645118.695,9.490942486483063e-30,9.490942486483063e-30,1.0437758833024057e-21
39564726662.610535,1.15915490377313e-29,1.15915490377313e-29,1.2747904662137935e-21
43725785289.12933,1.41569378354152e-29,1.41569378354152e-29,1.5569188610391507e-21
48324466271.56572,1.7289886274819635e-29,1.7289886274819635e-29,1.9014635852163128e-21
53406794754.86194,2.1115872292102796e-29,2.1115872292102796e-29,2.3222234308901916e-21
59023636390.70846,2.5788075681239966e-29,2.5788075681239966e-29,2.836043382804861e-21
65231206418.08248,3.149346616344116e-29,3.149346616344116e-29,3.4634839929702575e-21
72091632284.25429,3.846025285778441e-29,3.846025285778441e-29,4.229640444345949e-21
79673575437.16132,4.6966933391989806e-29,4.6966933391989806e-29,5.1651374039258e-21
88052918512.25693,5.735334281285315e-29,5.735334281285315e-29,6.307343711917427e-21
97313524791.4312,7.003407726197967e-29,7.003407726197967e-29,7.701847992653186e-21
107548077534.9233,8.551486959562301e-29,8.551486959562301e-29,9.404258707687453e-21
118859007586.54213,1.0441246532110031e-28,1.0441246532110031e-28,1.1482388681416847e-20
131359518535.97914,1.274784906590673e-28,1.274784906590673e-28,1.401887777751698e-20
145174719698.38306,1.556266435776717e-28,1.556266435776717e-28,1.711417769185859e-20
160442878250.43683,1.899674763971956e-28,1.899674763971956e-28,2.0890372237099138e-20
177316803054.73465,2.3185062524442735e-28,2.3185062524442735e-28,2.5495813972023434e-20
195965374022.23993,2.8291598249680352e-28,2.8291598249680352e-28,3.111074238578091e-20
216575232319.19656,3.451573377535997e-28,3.451573377535997e-28,3.795427069190852e-20
239352648334.65308,4.209980047130581e-28,4.209980047130581e-28,4.6292685568077395e-20
264525586103.8462,5.133854161117682e-28,5.133854161117682e-28,5.64498292708491e-20
292345984848.8865,6.259033633463029e-28,6.259033633463029e-28,6.881941278608318e-20
323092280471.1733,7.629099345590169e-28,7.629099345590169e-28,8.388014615668178e-20
357072192231.48126,9.297055235277897e-28,9.297055235277897e-28,1.0221416444405398e-19
394625802507.75006,1.1327387132743799e-27,1.1327387132743799e-27,1.2452960368940384e-19
436128960453.8294,1.3798273307251592e-27,1.3798273307251592e-27,1.5168478692741997e-19
481997043624.13654,1.68035352999494e-27,1.68035352999494e-27,1.8470942004793561e-19
532689115211.835,2.0460445324189803e-27,2.0460445324189803e-27,2.24890837694524e-19
588712518507.5681,2.4907719814068478e-27,2.4907719814068478e-27,2.73750836779385e-19
650627954561.6355,3.0318777325895005e-27,3.0318777325895005e-27,3.3319241012861335e-19
719055093868.564,3.689881705026502e-27,3.689881705026502e-27,4.0546567902913194e-19
794678778237.6915,4.4904054893766826e-27,4.4904054893766826e-27,4.933810588704363e-19
878255874920.1832,5.463793447772659e-27,5.463793447772659e-27,6.002642847649654e-19
970622851590.8705,6.648000632449558e-27,6.648000632449558e-27,7.302769120495627e-19
1072704147997.885,8.087865392400881e-27,8.087865392400881e-27,8.8833042123899e-19
1185521428066.3787,9.839568573512799e-27,9.839568573512799e-27,1.0805819026109553e-18
1310203805054.4722,1.1969455520836391e-26,1.1969455520836391e-26,1.3142943188482826e-18
1447999142098.2585,1.45603202651167e-26,1.45603202651167e-26,1.5985362718389066e-18
1600286541245.482,1.7710287217437184e-26,1.7710287217437184e-26,1.9440426387588208e-18
1768590145972.3713,2.1541976029917188e-26,2.1541976029917188e-26,2.3642369820345304e-18
1954594395323.8306,2.620051214883145e-26,2.620051214883145e-26,2.8749849848715546e-18
2160160882345.5522,3.186691919299523e-26,3.186691919299523e-26,3.496091403189467e-18
2387346985532.936,3.8755658906480833e-26,3.8755658906480833e-26,4.250984067108123e-18
2638426459766.564,4.713433103210243e-26,4.713433103210243e-26,5.168920364463802e-18
2915912192815.2935,5.732006345321469e-26,5.732006345321469e-26,6.2845154808148775e-18
3222581355161.6543,6.970851787849604e-26,6.970851787849604e-26,7.640998089239271e-18
3561503194857.4688,8.476880133731215e-26,8.476880133731215e-26,9.289528911401708e-18
3936069755589.9834,1.0308589731530059e-25,1.0308589731530059e-25,1.1293974111959732e-17
4350029825395.17,1.2535398123091242e-25,1.2535398123091242e-25,1.3729973601710072e-17
4807526455788.427,1.5243835070818474e-25,1.5243835070818474e-25,1.6691924504012197e-17
5313138426816.663,1.853666605564496e-25,1.853666605564496e-25,2.029170194243051e-17
5871926073027.972,2.254187328699633e-25,2.254187328699633e-25,2.46688118498639e-17
6489481929000.66,2.741145612044348e-25,2.741145612044348e-25,2.998856822123729e-17
7171986701308.98,3.333456963352935e-25,3.333456963352935e-25,3.6456981901528794e-17
7926271127111.9795,4.053618786014365e-25,4.053618786014365e-25,4.4318494440777224e-17
8759884338466.849,4.929603060009734e-25,4.929603060009734e-25,5.387748668273127e-17
9681169416579.893,5.99470971013048e-25,5.99470971013048e-25,6.549541162483574e-17
10699346892167.486,7.290304811487727e-25,7.290304811487727e-25,7.962199916212205e-17
11824607027626.564,8.865682220402918e-25,8.865682220402918e-25,9.67917684788779e-17
13068211804605.799,1.0782021520868245e-24,1.0782021520868245e-24,1.1766926154474105e-16
14442607637703.217,1.3112295061702672e-24,1.3112295061702672e-24,1.4304495876457297e-16
15961549942366.816,1.5946982300373065e-24,1.5946982300373065e-24,1.7390077237388243e-16
17640240803715.848,1.939408867121955e-24,1.939408867121955e-24,2.1140551326403347e-16
19495481124118.133,2.358739119868596e-24,2.358739119868596e-24,2.5700966441057153e-16
21545838772268.09,2.868667003023078e-24,2.868667003023078e-24,3.1244063004053225e-16
23811834416657.42,3.488959536784017e-24,3.488959536784017e-24,3.7983974623398407e-16
26316146903322.58,4.243238387166979e-24,4.243238387166979e-24,4.617583439954654e-16
29083840233358.637,5.16069030628777e-24,5.16069030628777e-24,5.613554535278951e-16
32142614411866.414,6.276198279560821e-24,6.276198279560821e-24,6.823952738459848e-16
35523082678913.93,7.632795684842643e-24,7.632795684842643e-24,8.295316608319976e-16
39259077897132.44,9.281899029264714e-24,9.281899029264714e-24,1.0083081337711176e-15
43387991162377.27,1.1286810517731646e-23,1.1286810517731646e-23,1.2255651587731669e-15
47951146026382.57,1.372309232695708e-23,1.372309232695708e-23,1.489442964992478e-15
52994212076756.65,1.668352291122137e-23,1.668352291122137e-23,1.809959935860614e-15
58567662013564.69,2.0278642995668855e-23,2.0278642995668855e-23,2.199015645845252e-15
64727276797075.49,2.4643679894605286e-23,2.4643679894605286e-23,2.6712025182101622e-15
71534703922360.6,2.993924139354226e-23,2.993924139354226e-23,3.2437981062896463e-15
79058074408144.86,3.6360764557571453e-23,3.6360764557571453e-23,3.937879638113181e-15
87372684674942.28,4.4139212476191786e-23,4.4139212476191786e-23,4.778278017549249e-15
96561750136940.0,5.355353930329713e-23,5.355353930329713e-23,5.795062153589636e-15
106717238049833.23,6.493090169982511e-23,6.493090169982511e-23,7.0233852683605924e-15
117940787950031.81,7.866222546658188e-23,7.866222546658188e-23,8.505368004595592e-15
130344728897301.88,9.520073903353656e-23,9.520073903353656e-23,1.0289685193307887e-14
144053203701752.47,1.1507973037514888e-22,1.1507973037514888e-22,1.2433777445507215e-14
159203411386804.0,1.3890681023606817e-22,1.3890681023606817e-22,1.5002867074883802e-14
175946980323129.44,1.6731762408954026e-22,1.6731762408954026e-22,1.806541862542292e-14
194451485776350.8,2.0058419293519286e-22,2.0058419293519286e-22,2.1650526773517003e-14
214902127056623.28,2.385751435719018e-22,2.385751435719018e-22,2.5744260444017996e-14
237503581055577.72,2.8120202888275358e-22,2.8120202888275358e-22,3.033688418836651e-14
262482050721446.75,3.284352538890004e-22,3.284352538890004e-22,3.542543962012558e-14
290087528974200.4,3.8053970892635534e-22,3.8053970892635534e-22,4.103803127733272e-14
320596300718713.0,4.379154400477418e-22,4.379154400477418e-22,4.7217917788416034e-14
354313707996956.3,5.013227970457357e-22,5.013227970457357e-22,5.40462752037536e-14
391577205953783.0,5.719267489129258e-22,5.719267489129258e-22,6.164862904754724e-14
432759740201439.1,6.510706311615069e-22,6.510706311615069e-22,7.016858858520491e-14
478273479384603.94,7.4052824039131545e-22,7.4052824039131545e-22,7.97972040825507e-14
528573940302716.94,8.425120592681319e-22,8.425120592681319e-22,9.077122842878627e-14
584164546875215.9,9.558865273680357e-22,9.558865273680357e-22,1.0296921858085236e-13
645601668577326.9,1.0610750782308374e-21,1.0610750782308374e-21,1.1428617250227488e-13
713500188772774.0,1.18166319660584e-21,1.18166319660584e-21,1.2725740300317362e-13
788539658673155.6,1.3054808695262456e-21,1.3054808695262456e-21,1.4057352281810087e-13
871471098514869.1,1.422552850932198e-21,1.422552850932198e-21,1.531636727690059e-13
963124514022070.5,1.5248801139094128e-21,1.5248801139094128e-21,1.6416639533286943e-13
1064417203382933.2,1.6063799973033754e-21,1.6063799973033754e-21,1.7292949677183836e-13
1176362937878229.2,1.6654243483818201e-21,1.6654243483818201e-21,1.7927589198911784e-13
1300082108045050.8,1.70839714385149e-21,1.70839714385149e-21,1.8389348286937935e-13
1436812936921871.5,1.7350904718254173e-21,1.7350904718254173e-21,1.8675763898255247e-13
1587923872600911.5,1.755295910724312e-21,1.755295910724312e-21,1.8892287319546895e-13
1754927284116586.5,1.774179742755583e-21,1.774179742755583e-21,1.9094200750155692e-13
1939494597743130.2,1.786938002081321e-21,1.786938002081321e-21,1.9230145778966462e-13
2143473025190537.0,1.800483140378326e-21,1.800483140378326e-21,1.9374176092172482e-13
2368904051120211.0,1.8047164401929343e-21,1.8047164401929343e-21,1.941805622877231e-13
2618043865009643.5,1.6290341130852289e-21,1.6290341130852289e-21,1.7528257871982479e-13
2893385941855023.5,1.476542974977304e-21,1.476542974977304e-21,1.5887664980459386e-13
3197685997707088.0,1.3155346045585885e-21,1.3155346045585885e-21,1.4155361770632428e-13
3533989569803590.0,1.1497851453370818e-21,1.1497851453370818e-21,1.2372179848613362e-13
3905662497329596.0,9.73985177954521e-22,9.73985177954521e-22,1.0480930262340195e-13
4316424607867374.5,7.969664384356053e-22,7.969664384356053e-22,8.576720986540737e-14
4770386946681101.0,6.290200548273504e-22,6.290200548273504e-22,6.770048232494148e-14
5272092921439636.0,4.926936192452129e-22,4.926936192452129e-22,5.303348407466922e-14
5826563774167574.0,3.8948434257507254e-22,3.8948434257507254e-22,4.192651883626464e-14
6439348835523086.0,3.1350747781871123e-22,3.1350747781871123e-22,3.374798428760971e-14
7116581064364399.0,2.5792488985232e-22,2.5792488985232e-22,2.776268708896361e-14
7865038428463370.0,2.0744779676483613e-22,2.0744779676483613e-22,2.23279816500495e-14
8692211740685108.0,1.6364084328201434e-22,1.6364084328201434e-22,1.761174794262287e-14
9606379629560898.0,1.3047040516662013e-22,1.3047040516662013e-22,1.404020658837646e-14
1.0616691394585014e+16,1.0340337543544507e-22,1.0340337543544507e-22,1.1125997624535321e-14
1.1733258575479342e+16,7.908254157706378e-23,7.908254157706378e-23,8.508193884162035e-15
1.2967256151881468e+16,5.75031647938696e-23,5.75031647938696e-23,6.1860676750111225e-15
1.4331034386296924e+16,3.986941356311188e-23,3.986941356311188e-23,4.288823645293842e-15
1.5838242429677468e+16,2.610494423723084e-23,2.610494423723084e-23,2.8080676530813245e-15
1.7503964926711318e+16,1.6308385039721085e-23,1.6308385039721085e-23,1.7542299263446997e-15
1.934487298801748e+16,9.689291663436533e-24,9.689291663436533e-24,1.0422275967897757e-15
2.1379391040224064e+16,5.344818168067563e-24,5.344818168067563e-24,5.749245361992824e-16
2.3627881223822696e+16,2.695018082129556e-24,2.695018082129556e-24,2.8991163462274005e-16
2.6112847184314524e+16,1.2509137743286408e-24,1.2509137743286408e-24,1.3457779855994907e-16
2.8859159296257964e+16,5.449681435477417e-25,5.449681435477417e-25,5.863635793408413e-17
3.1894303574336764e+16,2.2122908927267263e-25,2.2122908927267263e-25,2.3806656501275602e-17
3.5248656762633156e+16,8.353683071550645e-26,8.353683071550645e-26,8.990976566971147e-18
3.895579035529266e+16,2.862329222454032e-26,2.862329222454032e-26,3.0814266742565866e-18
4.3052806591321304e+16,8.729518256578718e-27,8.729518256578718e-27,9.401230052050122e-19
4.758070978626384e+16,2.3957591064617242e-27,2.3957591064617242e-27,2.5814853281766744e-19
5.258481671717614e+16,5.877204716631603e-28,5.877204716631603e-28,6.337855022374392e-20
5.811521016816121e+16,1.2857566271294594e-28,1.2857566271294594e-28,1.3881786122589187e-20
6.4227240175705896e+16,2.526296620857222e-29,2.526296620857222e-29,2.732282030724226e-21
7.098207799045012e+16,4.516375406542728e-30,4.516375406542728e-30,4.896337199595073e-22
7.844732829962294e+16,7.593452228531741e-31,7.593452228531741e-31,8.255278406784633e-23
8.6697705837476e+16,1.1879156949575075e-31,1.1879156949575075e-31,1.2953253223166598e-23
9.581578315545574e+16,1.74786383477732e-32,1.74786383477732e-32,1.9106551748194414e-24
1.0589281703605216e+17,2.1521166443830174e-33,2.1521166443830174e-33,2.3607710191788234e-25
1.1702966182135051e+17,2.240584911351704e-34,2.240584911351704e-34,2.4681905154607682e-26
1.2933777879718424e+17,1.7808844850952096e-35,1.7808844850952096e-35,1.9771421407930084e-27
1.4294035173514934e+17,1.1501293020966111e-36,1.1501293020966111e-36,1.2905932726893025e-28
1.579735197571912e+17,6.141112151210421e-38,6.141112151210421e-38,6.982010183302094e-30
1.745877398616961e+17,2.956687469720477e-39,2.956687469720477e-39,3.391256995066643e-31
1.929492927477033e+17,1.2682392888804505e-40,1.2682392888804505e-40,1.456711398917218e-32
2.132419470080257e+17,4.42006145435453e-42,4.42006145435453e-42,5.062746229185478e-34
2.3566879834709866e+17,1.1428007178229918e-43,1.1428007178229918e-43,1.3048206158731262e-35
2.604543022310481e+17,2.0322414600613054e-45,2.0322414600613054e-45,2.3155512809184076e-37
2.87846520313439e+17,2.3679660095596965e-47,2.3679660095596965e-47,2.6956966835342958e-39
3.181196031196844e+17,1.7052809677119043e-49,1.7052809677119043e-49,1.941355671169081e-41
3.5157653383764154e+17,7.233610460160411e-52,7.233610460160411e-52,8.241053429520646e-44
3.8855216067520083e+17,1.6934597888388992e-54,1.6934597888388992e-54,1.9315374167802938e-46
4.294165481336888e+17,2.0957971360511013e-57,2.0957971360511013e-57,2.3919572370361837e-49
4.745786807377834e+17,1.2357603049048873e-60,1.2357603049048873e-60,1.4125335057824905e-52
5.244905562901065e+17,3.242032604275397e-64,3.242032604275397e-64,3.7144670435421076e-56
5.796517096171429e+17,3.495339719874758e-68,3.495339719874758e-68,4.0140904686701564e-60
6.406142120816974e+17,1.4208564119525156e-72,1.4208564119525156e-72,1.6355569982017468e-64
7.079881968986382e+17,1.950765680096343e-77,1.950765680096343e-77,2.2506431029852651e-69
7.824479655531886e+17,8.111222273130528e-83,8.111222273130528e-83,9.380278647043035e-75
8.647387364368415e+17,8.948516434585528e-89,8.948516434585528e-89,1.0373217490582663e-80
9.556841032434775e+17,2.29170054023031e-95,2.29170054023031e-95,2.6632944709206184e-87
1.0561942777718975e+18,1.1615711059446352e-102,1.1615711059446352e-102,1.3533689684338612e-94
1.1672751996314153e+18,9.885657796566495e-111,9.885657796566495e-111,1.1549310792906257e-102
1.2900386040235832e+18,1.1643364143222697e-119,1.1643364143222697e-119,1.3640053911481958e-111
1.4257131483617725e+18,1.5504376035963777e-129,1.5504376035963777e-129,1.8215937847970564e-121
1.5756567090874988e+18,1.8457086304003125e-140,1.8457086304003125e-140,2.1748156504519433e-132
1.7413699717542868e+18,1.5324241907383662e-152,1.5324241907383662e-152,1.8112293331691353e-144
1.9245114503930527e+18,6.669785592164766e-166,6.669785592164766e-166,7.907493269629282e-158
2.1269140864779817e+18,1.1223017372821742e-180,1.1223017372821742e-180,1.3348791477434971e-172
2.350603593620902e+18,5.1578786033899665e-197,5.1578786033899665e-197,6.1546125679285824e-189
2.5978187315939323e+18,4.4578688862599296e-215,4.4578688862599296e-215,5.33735636533881e-207
2.8710337125897743e+18,4.7456175475565376e-235,4.7456175475565376e-235,5.700952204969529e-227
3.1729829639689805e+18,3.939973551109304e-257,3.939973551109304e-257,4.749789928273675e-249
3.50668849532798e+18,1.52321747648968e-281,1.52321747648968e-281,1.8426844453815314e-273
3.875490143786941e+18,1.567363166979466e-308,1.567363166979466e-308,1.9029885858305652e-300
4.2830790002021427e+18,0.0,0.0,0.0
4.733534350843919e+18,0.0,0.0,0.0
5.231364504264797e+18,0.0,0.0,0.0
5.781551911966668e+18,0.0,0.0,0.0
6.389603034450227e+18,0.0,0.0,0.0
7.061603451722312e+18,0.0,0.0,0.0
7.804278769826093e+18,0.0,0.0,0.0
8.625061932967001e+18,0.0,0.0,0.0
9.53216761491644e+18,0.0,0.0,0.0
1.0534674434228173e+19,0.0,0.0,0.0
1.164261581610402e+19,0.0,0.0,0.0
