Energy,Neutrino Flux Best Fit,Neutrino Flux Min,Neutrino Flux Max
5631067961.165049,1.9469950213310908e-30,1.9469950213310908e-30,7.333667312771047e-20
6223292548.387142,2.3780391677488887e-30,2.3780391677488887e-30,8.957228242694094e-20
6877801939.154355,2.9045079658847453e-30,2.9045079658847453e-30,1.0940199534001479e-19
7601146683.437688,3.54752498708003e-30,3.54752498708003e-30,1.3362136072917166e-19
8400566258.562493,4.332889170612132e-30,4.332889170612132e-30,1.6320198661057855e-19
9284061524.330818,5.2921093833327545e-30,5.2921093833327545e-30,1.993304886166388e-19
10260474798.315489,6.463667796072242e-30,6.463667796072242e-30,2.434560486386458e-19
11339578352.746374,7.894562637907101e-30,7.894562637907101e-30,2.973484843949903e-19
12532172218.69545,9.642192041260791e-30,9.642192041260791e-30,3.6316914909561015e-19
13850192276.417776,1.1776654293380051e-29,1.1776654293380051e-29,4.435574903927061e-19
15306829713.652876,1.4383556397633143e-29,1.4383556397633143e-29,5.417367192449063e-19
16916663047.465353,1.7567443070891907e-29,1.7567443070891907e-29,6.616427961948057e-19
18695804030.94367,2.1455982949523972e-29,2.1455982949523972e-29,8.080818639273563e-19
20662058905.040405,2.6205078802492165e-29,2.6205078802492165e-29,9.86922375943529e-19
22835106609.41662,3.2005105114063557e-29,3.2005105114063557e-29,1.205329534084722e-18
25236695735.884247,3.9088520902010436e-29,3.9088520902010436e-29,1.472051303436784e-18
27890862195.62298,4.773915917829577e-29,4.773915917829577e-29,1.7977672372805e-18
30824169778.658024,5.830355454917419e-29,5.830355454917419e-29,2.1955133419035535e-18
34065976013.199116,7.120478038779296e-29,7.120478038779296e-29,2.6812014794474125e-18
37648725985.65026,8.695930502409969e-29,8.695930502409969e-29,3.2742509108037864e-18
41608277061.93958,1.0619756702609105e-28,1.0619756702609105e-28,3.9983591370506734e-18
45984257760.08969,1.296890305691187e-28,1.296890305691187e-28,4.882438995610575e-18
50820464365.745544,1.5837275685699614e-28,1.5837275685699614e-28,5.9617616229381924e-18
56165299260.12174,1.9339460106975865e-28,1.9339460106975865e-28,7.279344410648348e-18
62072255347.30224,2.361523423880252e-28,2.361523423880252e-28,8.887624458865973e-18
68600451429.204025,2.8834938681026677e-28,2.8834938681026677e-28,1.0850399363928905e-17
75815223886.4173,3.5206127891488037e-28,3.5206127891488037e-28,1.3245274319837108e-17
83788780586.66258,4.298162513589324e-28,4.298162513589324e-28,1.6166624932861414e-17
92600923565.4009,5.246933747153234e-28,5.246933747153234e-28,1.9729194640241484e-17
102339847711.42699,6.4044221206687465e-28,6.4044221206687465e-28,2.407251944225811e-17
113103023450.95969,7.816276067200261e-28,7.816276067200261e-28,2.936622466025845e-17
124998172264.42863,9.538064436057242e-28,9.538064436057242e-28,3.5816560215601484e-17
138144344799.25656,1.1637411318133987e-27,1.1637411318133987e-27,4.367420888598484e-17
152673112368.75317,1.4196585948281037e-27,1.4196585948281037e-27,5.32437897827513e-17
168729883762.0415,1.7315653744504822e-27,1.7315653744504822e-27,6.489541930456233e-17
186475360544.09262,2.111629223721086e-27,2.111629223721086e-27,7.907873913860465e-17
206087145411.00226,2.574623395805256e-27,2.574623395805256e-27,9.633845908199923e-17
227761519697.46692,3.1384139000624048e-27,3.1384139000624048e-27,1.1732932972395218e-16
251715407826.35422,3.824904799492502e-27,3.824904799492502e-27,1.428617833167157e-16
278188548361.238,4.660410041908042e-27,4.660410041908042e-27,1.7389848086731608e-16
307445893390.52094,5.6772137845779266e-27,5.6772137845779266e-27,2.1163130001122935e-16
339780260256.9899,6.913999744866493e-27,6.913999744866493e-27,2.5747332843611596e-16
375515262172.1999,8.418254484625558e-27,8.418254484625558e-27,3.131734329212201e-16
415008547046.2675,1.0246710886963786e-26,1.0246710886963786e-26,3.808007596005588e-16
458655376948.3643,1.2469146631944375e-26,1.2469146631944375e-26,4.629218260136297e-16
506892584022.35583,1.5168532293971337e-26,1.5168532293971337e-26,5.625571403874334e-16
560202942449.7246,1.844716663146098e-26,1.844716663146098e-26,6.834635871642048e-16
619120000215.8412,2.242610637245321e-26,2.242610637245321e-26,8.300426183742041e-16
684233419037.5367,2.7254754746410234e-26,2.7254754746410234e-26,1.0077632016662048e-15
756194875895.7534,3.3109168990133086e-26,3.3109168990133086e-26,1.223017298304724e-15
835724585237.8099,4.020735267312398e-26,4.020735267312398e-26,1.4837760502338252e-15
923618507125.6609,4.88044829218148e-26,4.88044829218148e-26,1.7992904956385182e-15
1020756313471.7253,5.921743136988711e-26,5.921743136988711e-26,2.1811187952262607e-15
1128110192091.0608,7.181455042885359e-26,7.181455042885359e-26,2.6425904240063592e-15
1246754576683.7725,8.705520315333482e-26,8.705520315333482e-26,3.2004306501632324e-15
1377876900128.6196,1.0546901717796844e-25,1.0546901717796844e-25,3.87377437889447e-15
1522789478710.3748,1.277197328321942e-25,1.277197328321942e-25,4.686746750392318e-15
1682942646222.2812,1.5456548059677702e-25,1.5456548059677702e-25,5.666697423169675e-15
1859939269394.1394,1.8696177062721048e-25,1.8696177062721048e-25,6.848296356973862e-15
2055550789921.2695,2.2598851473343813e-25,2.2598851473343813e-25,8.270447820437375e-15
2271734953648.411,2.730159842786832e-25,2.730159842786832e-25,9.982795486897836e-15
2510655404348.155,3.295741748996398e-25,3.295741748996398e-25,1.2040389911981567e-14
2774703338195.0356,3.9761950667944328e-25,3.9761950667944328e-25,1.4513999156752306e-14
3066521435660.5737,4.793054297379716e-25,4.793054297379716e-25,1.748096875741129e-14
3389030310347.6475,5.7741096441294995e-25,5.7741096441294995e-25,2.1041626393373558e-14
3745457739473.1055,6.94946819785512e-25,6.94946819785512e-25,2.5303943473285358e-14
4139370968547.0337,8.358405454737821e-25,8.358405454737821e-25,3.040947795174535e-14
4574712413564.807,1.0042686398195295e-24,1.0042686398195295e-24,3.650777217406531e-14
5055839118031.482,1.2057498741405202e-24,1.2057498741405202e-24,4.379741507037927e-14
5587566359717.624,1.4460271988511836e-24,1.4460271988511836e-24,5.248371163484257e-14
6175215843577.728,1.7328064906318984e-24,1.7328064906318984e-24,6.284353120991933e-14
6824668963162.087,2.0739057884219396e-24,2.0739057884219396e-24,7.515592624095621e-14
7542425663580.218,2.4800101655166033e-24,2.4800101655166033e-24,8.980425438190974e-14
8335669495136.28,2.961639234306758e-24,2.961639234306758e-24,1.0716339621991692e-13
9212339508714.93,3.533495387553843e-24,3.533495387553843e-24,1.2776010737570932e-13
10181209712471.035,4.209540507026953e-24,4.209540507026953e-24,1.520910706379399e-13
11251976885052.32,5.009831822435897e-24,5.009831822435897e-24,1.8087385804151508e-13
12435357624219.234,5.9526014841597054e-24,5.9526014841597054e-24,2.1475588258596914e-13
13743195602157.383,7.064958832258478e-24,7.064958832258478e-24,2.547057805168047e-13
15188580100929.473,8.370248580398999e-24,8.370248580398999e-24,3.0155092554643907e-13
16785977014409.732,9.904735672497366e-24,9.904735672497366e-24,3.5658554794552984e-13
18551373627811.918,1.1697586659209038e-23,1.1697586659209038e-23,4.2084118071916015e-13
20502438623813.28,1.379676722828861e-23,1.379676722828861e-23,4.960277681547319e-13
22658698916669.336,1.623758175956396e-23,1.623758175956396e-23,5.833908808441754e-13
25041735084135.12,1.9082687615052656e-23,1.9082687615052656e-23,6.851619983354784e-13
27675397353140.758,2.2373020153457532e-23,2.2373020153457532e-23,8.027809543877159e-13
30586044300878.906,2.6189330298061653e-23,2.6189330298061653e-23,9.39121215446719e-13
33802806660304.82,3.05761926214665e-23,3.05761926214665e-23,1.0957440884787044e-12
37357878870302.68,3.563616163143586e-23,3.563616163143586e-23,1.2762959984496951e-12
41286841288451.234,4.1412979705879464e-23,4.1412979705879464e-23,1.4822980660940795e-12
45629016291201.195,4.8034890322555874e-23,4.8034890322555874e-23,1.718306915048572e-12
50427861825435.484,5.553648536438169e-23,5.553648536438169e-23,1.9855050323271586e-12
55731406350208.52,6.407560335917175e-23,6.407560335917175e-23,2.2894972644613372e-12
61592729521706.91,7.366368905643144e-23,7.366368905643144e-23,2.630627372221946e-12
68070493432289.836,8.449203527710146e-23,8.449203527710146e-23,3.0156849687464548e-12
75229529720426.08,9.652699268169086e-23,9.652699268169086e-23,3.4433933762150963e-12
83141488427522.62,1.0999734163020165e-22,1.0999734163020165e-22,3.921870346596274e-12
91885555095620.98,1.2479186006965049e-22,1.2479186006965049e-22,4.447065166900269e-12
101549243282917.9,1.4118186173501792e-22,1.4118186173501792e-22,5.0286042247578306e-12
112229270428869.64,1.5893297213667915e-22,1.5893297213667915e-22,5.658047690092582e-12
124032525834833.95,1.7836704602647405e-22,1.7836704602647405e-22,6.346817521116731e-12
137077140448125.1,1.9906596392714037e-22,1.9906596392714037e-22,7.079942685091976e-12
151493669156238.88,2.214167951139314e-22,2.214167951139314e-22,7.871165422180184e-12
167426397424048.88,2.4474180996336234e-22,2.4474180996336234e-22,8.69630798205059e-12
185034785351234.28,2.6952066098365913e-22,2.6952066098365913e-22,9.572408229571838e-12
204495063602553.88,2.9472754511362683e-22,2.9472754511362683e-22,1.0462970348355084e-11
226001997183572.75,3.209832024909684e-22,3.209832024909684e-22,1.1390050330558666e-11
249770834714298.97,3.4681955974365317e-22,3.4681955974365317e-22,1.2301532442081608e-11
276039462709722.47,3.730777398983304e-22,3.730777398983304e-22,1.3227297493316775e-11
305070786428012.4,3.977591621173745e-22,3.977591621173745e-22,1.409653169972868e-11
337155361114706.1,4.2204299860292454e-22,4.2204299860292454e-22,1.4951091930911382e-11
372614299977266.8,4.433339088595649e-22,4.433339088595649e-22,1.5699175973965166e-11
411802487993990.6,4.633049878894238e-22,4.633049878894238e-22,1.640009638692833e-11
455112133722154.3,4.787383694993966e-22,4.787383694993966e-22,1.694020735092305e-11
502976694653080.0,4.919800422516463e-22,4.919800422516463e-22,1.740254212622454e-11
555875215400398.9,4.992222266475743e-22,4.992222266475743e-22,1.7652814629326378e-11
614337122139558.1,5.036494898278566e-22,5.036494898278566e-22,1.780354190254187e-11
678947521282926.5,5.009683416144175e-22,5.009683416144175e-22,1.7703515917757634e-11
750353055421436.9,4.952954768586711e-22,4.952954768586711e-22,1.7497933237238027e-11
829268375140976.4,4.820313723809202e-22,4.820313723809202e-22,1.7025025951738887e-11
916483291485653.1,4.661750167588567e-22,4.661750167588567e-22,1.6460814283404193e-11
1012870680652192.0,4.430666241190636e-22,4.430666241190636e-22,1.5641637086758046e-11
1119395220028288.9,4.183369041119932e-22,4.183369041119932e-22,1.4765449889820352e-11
1237123043008155.2,3.8755270606855366e-22,3.8755270606855366e-22,1.3676780100716922e-11
1367232409213861.2,3.565205898184894e-22,3.565205898184894e-22,1.2579474985402775e-11
1511025496913662.0,3.2132070376420085e-22,3.2132070376420085e-22,1.1336281427739058e-11
1669941435659785.8,2.873545411691293e-22,2.873545411691293e-22,1.0136579816848312e-11
1845570709580690.0,2.5144512399873694e-22,2.5144512399873694e-22,8.86931551301796e-12
2039671075480815.0,2.1804189105767157e-22,2.1804189105767157e-22,7.690302166992472e-12
2254185155061475.0,1.848194170005692e-22,1.848194170005692e-22,6.518387678492455e-12
2491259877331785.5,1.5493760180590914e-22,1.5493760180590914e-22,5.4641004125296036e-12
2753267965795798.5,1.2686700896877259e-22,1.2686700896877259e-22,4.4741377654321845e-12
3042831685466812.0,1.0245021482877845e-22,1.0245021482877845e-22,3.612866099699241e-12
3362849087377026.0,8.075238322526816e-23,8.075238322526816e-23,2.847708048160748e-12
3716523013246320.5,6.254701578347183e-23,6.254701578347183e-23,2.205613493201185e-12
4107393150598706.5,4.7238782285944686e-23,4.7238782285944686e-23,1.6657804584380992e-12
4539371459144806.0,3.4912736716913876e-23,3.4912736716913876e-23,1.2310755960748595e-12
5016781322989455.0,2.5116163422885466e-23,2.5116163422885466e-23,8.856052280012661e-13
5544400820513016.0,1.7600298679819638e-23,1.7600298679819638e-23,6.205581680732681e-13
6127510544985743.0,1.1970988154440347e-23,1.1970988154440347e-23,4.2205103840683143e-13
6771946454520102.0,7.890519044215133e-24,7.890519044215133e-24,2.7816688436635806e-13
7484158280301118.0,5.026108223382965e-24,5.026108223382965e-24,1.7716965539694578e-13
8271274077663844.0,3.083279733391885e-24,3.083279733391885e-24,1.0867350958281137e-13
9141171566067054.0,1.816368442972962e-24,1.816368442972962e-24,6.401212255306414e-14
1.0102556971957328e+16,1.022312602869186e-24,1.022312602869186e-24,3.602413071143059e-14
1.116505216360961e+16,5.478818572987203e-25,5.478818572987203e-25,1.9304300849779574e-14
1.2339290950018948e+16,2.7779386140712754e-25,2.7779386140712754e-25,9.78748316687723e-15
1.3637025507634966e+16,1.3275223057548256e-25,1.3275223057548256e-25,4.677401700159119e-15
1.5071244000093954e+16,5.936413270765832e-26,5.936413270765832e-26,2.0920097707701597e-15
1.6656300568125924e+16,2.4749964390593727e-26,2.4749964390593727e-26,8.725176844403427e-16
1.8408058990619652e+16,9.54906997691689e-27,9.54906997691689e-27,3.368603544785907e-16
2.0344051454653828e+16,3.400583717520268e-27,3.400583717520268e-27,1.200868896855318e-16
2.248365402351798e+16,1.109814779861883e-27,1.109814779861883e-27,3.9253634852867367e-17
2.4848280558866588e+16,3.3177609601646595e-28,3.3177609601646595e-28,1.1760750244743219e-17
2.7461597037843844e+16,9.032385100209246e-29,9.032385100209246e-29,3.211464928295134e-18
3.0349758410137348e+16,2.2421836141556508e-29,2.2421836141556508e-29,8.002513878067503e-19
3.3541670365505656e+16,5.0522126028127994e-30,5.0522126028127994e-30,1.8115089918353593e-19
3.7069278631636616e+16,1.031128218475581e-30,1.031128218475581e-30,3.716353817768664e-20
4.096788869772781e+16,1.8908628296213113e-31,1.8908628296213113e-31,6.852771943057242e-21
4.527651916368877e+16,3.073713791428712e-32,3.073713791428712e-32,1.1204081331934174e-21
5.003829225140355e+16,4.355272987829775e-33,4.355272987829775e-33,1.5973571909854112e-22
5.530086538642131e+16,5.255075970750444e-34,5.255075970750444e-34,1.9411054733381994e-23
6.111690816948891e+16,5.283837876232769e-35,5.283837876232769e-35,1.9691631883155628e-24
6.754462951161921e+16,4.322866921542523e-36,4.322866921542523e-36,1.6300837937883384e-25
7.464836020843579e+16,2.8206157056174296e-37,2.8206157056174296e-37,1.0806295027914666e-26
8.249919678439845e+16,1.4383863466399794e-38,1.4383863466399794e-38,5.626038230405992e-28
9.117571305071728e+16,5.637546979991351e-40,5.637546979991351e-40,2.2625656713970972e-29
1.007647464984628e+17,1.6639114365970942e-41,1.6639114365970942e-41,6.873507144960505e-31
1.1136226739736619e+17,3.627021041057335e-43,3.627021041057335e-43,1.541971142237815e-32
1.2307433929853314e+17,5.645834573691421e-45,5.645834573691421e-45,2.4581450996873174e-34
1.3601818055411333e+17,6.052855654556386e-47,6.052855654556386e-47,2.676212235193415e-36
1.5032333747796883e+17,4.2100838899805866e-49,4.2100838899805866e-49,1.8724440048450153e-38
1.661329808887219e+17,1.795529475643859e-51,1.795529475643859e-51,7.96491351418218e-41
1.8360533901143306e+17,4.3407596595782097e-54,4.3407596595782097e-54,1.9101254642018732e-43
2.029152810788563e+17,5.568629910515674e-57,5.568629910515674e-57,2.42236967591646e-46
2.242560674814972e+17,3.4756550857586787e-60,3.4756550857586787e-60,1.493139320843712e-49
2.47841283982561e+17,9.81057889043485e-64,9.81057889043485e-64,4.1602938677556577e-53
2.7390697935605363e+17,1.1368438645825956e-67,1.1368438645825956e-67,4.762328222181707e-57
3.0271402784225766e+17,4.962771349004023e-72,4.962771349004023e-72,2.0545101328132252e-61
3.3455074006480557e+17,7.290070431724414e-77,7.290070431724414e-77,2.9856574808607403e-66
3.697357485403077e+17,3.243337026057584e-82,3.243337026057584e-82,1.3147757858840713e-71
4.086211966596792e+17,3.8185718039504814e-88,3.8185718039504814e-88,1.5337061794377422e-77
4.5159626305754656e+17,1.0443785378127542e-94,1.0443785378127542e-94,4.158032278673206e-84
4.990910566428411e+17,5.639595822677836e-102,5.639595822677836e-102,2.2276317091418836e-91
5.515809212733145e+17,5.117497966622544e-110,5.117497966622544e-110,2.0063075363252526e-99
6.095911931566392e+17,6.411132679837773e-119,6.411132679837773e-119,2.4965710324494117e-108
6.737024585917533e+17,9.088092047839382e-129,9.088092047839382e-129,3.5164429630932657e-118
7.445563646716675e+17,1.148955670549781e-139,1.148955670549781e-139,4.4201207035663594e-129
8.228620411032545e+17,1.0139261983874086e-151,1.0139261983874086e-151,3.8794105811227787e-141
9.094031974156864e+17,4.6794886115562e-165,4.6794886115562e-165,1.781654845805776e-154
1.0050459665888214e+18,8.356521259111948e-180,8.356521259111948e-180,3.16682596309759e-169
1.110747573603196e+18,4.0663436219752015e-196,4.0663436219752015e-196,1.5345383509776044e-185
1.227565915669344e+18,3.724325655030048e-214,3.724325655030048e-214,1.3998647366540177e-203
1.356670150018659e+18,4.191849892251644e-234,4.191849892251644e-234,1.569928117948557e-223
1.49935239522195e+18,3.682695217055488e-256,3.682695217055488e-256,1.3745157669055812e-245
1.6570406631463603e+18,1.5032199826458104e-280,1.5032199826458104e-280,5.593208206150662e-270
1.8313131509781455e+18,1.6344952142992026e-307,1.6344952142992026e-307,6.063703119193946e-297
2.023914036350527e+18,0.0,0.0,0.0
2.236770933659697e+18,0.0,0.0,0.0
2.472014186277614e+18,0.0,0.0,0.0
2.73199818774445e+18,0.0,0.0,0.0
3.0193249453305436e+18,0.0,0.0,0.0
3.336870121799666e+18,0.0,0.0,0.0
3.687811816008528e+18,0.0,0.0,0.0
4.0756623703883715e+18,0.0,0.0,0.0
4.5043035236484767e+18,0.0,0.0,0.0
4.978025260521969e+18,0.0,0.0,0.0
5.501568747374837e+18,0.0,0.0,0.0
