Energy,Neutrino Flux Best Fit,Neutrino Flux Min,Neutrino Flux Max
3966745843.230404,1.309890534653586e-30,1.309890534653586e-30,3.975388436928206e-21
4383932145.335705,1.599789837777883e-30,1.599789837777883e-30,4.855209588156221e-21
4844994313.842004,1.9538294093291796e-30,1.9538294093291796e-30,5.929693421142904e-21
5354546813.900061,2.386192507409444e-30,2.386192507409444e-30,7.241886298567748e-21
5917689418.196963,2.914195442269984e-30,2.914195442269984e-30,8.84434378261364e-21
6540058247.195283,3.5589782528280215e-30,3.5589782528280215e-30,1.0801227070084912e-20
7227882177.321022,4.346347024757935e-30,4.346347024757935e-30,1.3190859773995113e-20
7988045181.652485,5.307800869816185e-30,5.307800869816185e-30,1.610884531910616e-20
8828155227.03663,6.481783653329228e-30,6.481783653329228e-30,1.967186669190048e-20
9756620417.1784,7.915209081553397e-30,7.915209081553397e-30,2.4022316192650805e-20
10782733143.76866,9.665318018724553e-30,9.665318018724553e-30,2.933393402043661e-20
11916763087.863525,1.1801939211889988e-29,1.1801939211889988e-29,3.5818671949492767e-20
13170060002.304123,1.4410239318802674e-29,1.4410239318802674e-29,4.37350431256188e-20
14555167303.857811,1.759406565896874e-29,1.759406565896874e-29,5.3398272348376894e-20
16085947611.949188,2.148000587274279e-29,2.148000587274279e-29,6.519262444023662e-20
17777721490.41465,2.622231313162888e-29,2.622231313162888e-29,7.958636284151136e-20
19647420780.854733,3.200886789103948e-29,3.200886789103948e-29,9.714985916981796e-20
21713758062.195786,3.9068320156754805e-29,3.9068320156754805e-29,1.185772963260336e-19
23997413932.46941,4.7678911526841384e-29,4.7678911526841384e-29,1.447134699121874e-19
26521243987.188557,5.817891418275453e-29,5.817891418275453e-29,1.765855204262513e-19
29310507565.829422,7.09793594666153e-29,7.09793594666153e-29,2.1544162595818108e-19
32393120555.790924,8.657911049340812e-29,8.657911049340812e-29,2.6279684673449063e-19
35799934783.978584,1.055831388301402e-28,1.055831388301402e-28,3.2048872210130912e-19
39565046792.25793,1.2872402330448296e-28,1.2872402330448296e-28,3.907427161071204e-19
43726139087.10565,1.568853862336594e-28,1.568853862336594e-28,4.762437362517654e-19
48324857278.8,1.9111698944593196e-28,1.9111698944593196e-28,5.8018314487394675e-19
53407226884.68604,2.3266418381149467e-28,2.3266418381149467e-28,7.063490029145772e-19
59024113968.022896,2.830026353687647e-28,2.830026353687647e-28,8.592325645500207e-19
65231734222.641525,3.4387774019502483e-28,3.4387774019502483e-28,1.0441494044994409e-18
72092215598.50339,4.173614475871686e-28,4.173614475871686e-28,1.2674131990965092e-18
79674220099.10548,5.0590689248125645e-28,5.0590689248125645e-28,1.5365039428878098e-18
88053630973.88963,6.1243140628652905e-28,6.1243140628652905e-28,1.860321866729959e-18
97314312183.30789,7.403952127254662e-28,7.403952127254662e-28,2.2494299089751056e-18
107548947737.52657,8.939041406804023e-28,8.939041406804023e-28,2.7163693875612172e-18
118859969309.1521,1.0778327972153751e-27,1.0778327972153751e-27,3.276038731821708e-18
131360581403.83887,1.297980495940571e-27,1.297980495940571e-27,3.946172195619062e-18
145175894349.03146,1.5610520442993764e-27,1.5610520442993764e-27,4.747299390398103e-18
160444176440.17233,1.8741151079800765e-27,1.8741151079800765e-27,5.701147660516464e-18
177318237776.2765,2.2477117111043532e-27,2.2477117111043532e-27,6.839943084091576e-18
195966959634.76346,2.6916615668728958e-27,2.6916615668728958e-27,8.193927337307256e-18
216576984692.04483,3.2207435655911153e-27,3.2207435655911153e-27,9.80833381905745e-18
239354585006.1628,3.84862136599539e-27,3.84862136599539e-27,1.1725315251323645e-17
264527726456.8765,4.595800559858849e-27,4.595800559858849e-27,1.4007727398416863e-17
292348350304.8099,5.481151001669432e-27,5.481151001669432e-27,1.6713898724957585e-17
323094894704.26794,6.533718292473558e-27,6.533718292473558e-27,1.9932945580404242e-17
357075081405.87036,7.779201884942081e-27,7.779201884942081e-27,2.3744503089684495e-17
394628995539.2626,9.258364445875105e-27,9.258364445875105e-27,2.8273781846300407e-17
436132489299.39734,1.1006594863470173e-26,1.1006594863470173e-26,3.3630663805786106e-17
482000943601.6328,1.3078430004095675e-26,1.3078430004095675e-26,3.998310639084927e-17
532693425353.54474,1.5522046802937382e-26,1.5522046802937382e-26,4.7481062168160166e-17
588717281950.8383,1.8413932284220485e-26,1.8413932284220485e-26,5.636035251936767e-17
650633218980.6083,2.1819208827066671e-26,2.1819208827066671e-26,6.682421850202375e-17
719060911951.3125,2.5840878430641938e-26,2.5840878430641938e-26,7.919100996127784e-17
794685208213.5448,3.0564997953680844e-26,3.0564997953680844e-26,9.373029777771066e-17
878262981142.5002,3.6131585025538693e-26,3.6131585025538693e-26,1.1087575759915385e-16
970630705181.1118,4.2654287617371636e-26,4.2654287617371636e-26,1.3098472485247465e-16
1072712827557.4231,5.032270077744749e-26,5.032270077744749e-26,1.5464574773098847e-16
1185531020463.161,5.928612554580321e-26,5.928612554580321e-26,1.8233014010050778e-16
1310214406292.4316,6.979925673297938e-26,6.979925673297938e-26,2.1483052601902104e-16
1448010858278.1455,8.205735507855184e-26,8.205735507855184e-26,2.5276588071122355e-16
1600299489626.764,9.640255225976812e-26,9.640255225976812e-26,2.9720355401779163e-16
1768604456146.802,1.1308968567948907e-25,1.1308968567948907e-25,3.489547417904778e-16
1954610210512.442,1.3257403355849194e-25,1.3257403355849194e-25,4.0944374694062427e-16
2160178360832.0718,1.5517451668969315e-25,1.5517451668969315e-25,4.796926606296595e-16
2387366302247.9272,1.8148210467567835e-25,1.8148210467567835e-25,5.615575573508394e-16
2638447808038.205,2.1189577304398917e-25,2.1189577304398917e-25,6.563258477375082e-16
2915935786304.2646,2.4718368609031775e-25,2.4718368609031775e-25,7.664193761690574e-16
3222607429999.5186,2.878347890515043e-25,2.878347890515043e-25,8.934291016579862e-16
3561532012009.973,3.348381535883667e-25,3.348381535883667e-25,1.040486664200712e-15
3936101603468.869,3.8878182916367595e-25,3.8878182916367595e-25,1.209524562839737e-15
4350065022744.717,4.509301361098574e-25,4.509301361098574e-25,1.4045643158467823e-15
4807565354875.545,5.219772498613698e-25,5.219772498613698e-25,1.6279138047594002e-15
5313181416956.48,6.035262625100818e-25,6.035262625100818e-25,1.8846973239905567e-15
5871973584480.268,6.96374213230763e-25,6.96374213230763e-25,2.1776031977563434e-15
6489534437276.005,8.02533093513954e-25,8.02533093513954e-25,2.513097683412212e-15
7172044731927.852,9.22875838955601e-25,9.22875838955601e-25,2.894184934103171e-15
7926335260864.32,1.059882745850548e-24,1.059882745850548e-24,3.328888162248426e-15
8759955217224.796,1.2144626968449862e-24,1.2144626968449862e-24,3.82042315377528e-15
9681247749721.89,1.3896636506306834e-24,1.3896636506306834e-24,4.378712977050197e-15
10699433463677.938,1.5863713508470673e-24,1.5863713508470673e-24,5.0070194905298526e-15
11824702703942.248,1.8082997513574663e-24,1.8082997513574663e-24,5.717514953788256e-15
13068317543287.443,2.05621728505081e-24,2.05621728505081e-24,6.513227091555395e-15
14442724497019.096,2.3346226393532966e-24,2.3346226393532966e-24,7.408997160820803e-15
15961679091884.234,2.644034412587971e-24,2.644034412587971e-24,8.407205141752299e-15
17640383536006.562,2.989875352387678e-24,2.989875352387678e-24,9.525851404856809e-15
19495638867694.902,3.372227684929072e-24,3.372227684929072e-24,1.0766061076239775e-14
21546013105881.65,3.7976472917170215e-24,3.7976472917170215e-24,1.2149699006897441e-14
23812027085097.19,4.2655671956345465e-24,4.2655671956345465e-24,1.3675898441275184e-14
26316359834879.04,4.7838404693911704e-24,4.7838404693911704e-24,1.5370964726666766e-14
29084075559122.355,5.350842466905074e-24,5.350842466905074e-24,1.723064161252649e-14
32142874487056.75,5.9759445222197566e-24,5.9759445222197566e-24,1.9286423200269544e-14
35523370106450.805,6.655932196092376e-24,6.655932196092376e-24,2.1528786900262982e-14
39259395553687.31,7.40194321813742e-24,7.40194321813742e-24,2.3995245556769472e-14
43388342227163.586,8.208402084259432e-24,8.208402084259432e-24,2.666826977436122e-14
47951534012974.75,9.08846185417671e-24,9.08846185417671e-24,2.959222769406463e-14
52994640868254.94,1.0033078229280028e-23,1.0033078229280028e-23,3.2737644328643476e-14
58568135901458.625,1.1057711447777027e-23,1.1057711447777027e-23,3.615672443950163e-14
64727800524194.305,1.2148338755320817e-23,1.2148338755320817e-23,3.980267172113441e-14
71535282730341.17,1.332311509446526e-23,1.332311509446526e-23,4.3736839946339806e-14
79058714089892.16,1.4560955273766623e-23,1.4560955273766623e-23,4.788775302149782e-14
87373391632606.22,1.5883218514950226e-23,1.5883218514950226e-23,5.232769109208544e-14
96562531445990.66,1.7258965631881256e-23,1.7258965631881256e-23,5.695075489581983e-14
106718101529874.06,1.8713555850342447e-23,1.8713555850342447e-23,6.184297359907001e-14
117941742243061.05,2.0202614996731446e-23,2.0202614996731446e-23,6.685169725475601e-14
130345783554205.12,2.1756860749544283e-23,2.1756860749544283e-23,7.208152861850938e-14
144054369277890.47,2.331413851569007e-23,2.331413851569007e-23,7.731834642426815e-14
159204699547654.8,2.491290173325053e-23,2.491290173325053e-23,8.269367614872113e-14
175948403961039.25,2.64683130635234e-23,2.64683130635234e-23,8.791563383330457e-14
194453059139566.56,2.80305313628158e-23,2.80305313628158e-23,9.3156401010749e-14
214903865891892.9,2.9486945478343805e-23,2.9486945478343805e-23,9.802984731470699e-14
237505502765749.06,3.090549668133e-23,3.090549668133e-23,1.0276951390208268e-13
262484174539641.53,3.2141059530064194e-23,3.2141059530064194e-23,1.0688027650600783e-13
290089876156304.06,3.3287795388878685e-23,3.3287795388878685e-23,1.1068530002005189e-13
320598894756113.4,3.416448434461651e-23,3.416448434461651e-23,1.1357017334548752e-13
354316574851651.6,3.4902056495862303e-23,3.4902056495862303e-23,1.1598227702745992e-13
391580374318218.6,3.5281956301921227e-23,3.5281956301921227e-23,1.171858263251435e-13
432763241785672.0,3.548339622922983e-23,3.548339622922983e-23,1.1778907654077047e-13
478277349233664.44,3.5252985941617214e-23,3.5252985941617214e-23,1.1694529119497892e-13
528578217147355.8,3.482805461929115e-23,3.482805461929115e-23,1.154533348734202e-13
584169273519532.1,3.392771191712569e-23,3.392771191712569e-23,1.1238164883676828e-13
645606892327165.2,3.28511248613587e-23,3.28511248613587e-23,1.087282017945894e-13
713505961909179.9,3.1302315025398625e-23,3.1302315025398625e-23,1.0351885706970395e-13
788546038975616.2,2.963442221489921e-23,2.963442221489921e-23,9.792101413241107e-14
871478149839596.9,2.755288070020712e-23,2.755288070020712e-23,9.09727285231562e-14
963132306941093.8,2.544162199840701e-23,2.544162199840701e-23,8.393231476982578e-14
1064425815890404.8,2.3026210857668833e-23,2.3026210857668833e-23,7.591077268051923e-14
1176372456171020.2,2.0684535876938467e-23,2.0684535876938467e-23,6.813678951333849e-14
1300092627385430.8,1.8180429782207186e-23,1.8180429782207186e-23,5.98515761162334e-14
1436824562590937.0,1.5844154344312464e-23,1.5844154344312464e-23,5.212110891500203e-14
1587936720952266.0,1.3491191195545405e-23,1.3491191195545405e-23,4.435716807395251e-14
1754941483740848.5,1.137129288057596e-23,1.137129288057596e-23,3.7360286891589014e-14
1939510290754915.5,9.355276088219255e-24,9.355276088219255e-24,3.0721241427196874e-14
2143490368650775.5,7.599571998544884e-24,7.599571998544884e-24,2.4937772139759466e-14
2368923218608085.0,6.0220941897659305e-24,6.0220941897659305e-24,1.9750385340268482e-14
2618065048359814.5,4.696067002289091e-24,4.696067002289091e-24,1.538942643870428e-14
2893409353077580.0,3.57040941874561e-24,3.57040941874561e-24,1.169227129683309e-14
3197711871109419.5,2.660666957464813e-24,2.660666957464813e-24,8.704995388129404e-15
3534018164335392.5,1.9312562418694893e-24,1.9312562418694893e-24,6.312454227333457e-15
3905694099174559.5,1.367986595726556e-24,1.367986595726556e-24,4.466101766422189e-15
4316459533307386.5,9.420581807529774e-25,9.420581807529774e-25,3.07147924516739e-15
4770425545261704.0,6.301784494510125e-25,6.301784494510125e-25,2.0514352077255414e-15
5272135579468406.0,4.0852820056060198e-25,4.0852820056060198e-25,1.32749252554426e-15
5826610918580383.0,2.5592716504702626e-25,2.5592716504702626e-25,8.298982957462791e-16
6439400938157072.0,1.5462296780406793e-25,1.5462296780406793e-25,5.001970414108902e-16
7116638646680235.0,8.969060441894241e-26,8.969060441894241e-26,2.8936306703216734e-16
7865102066764228.0,4.98316667257823e-26,4.98316667257823e-26,1.602828963682601e-16
8692282071884508.0,2.6368618389074057e-26,2.6368618389074057e-26,8.453535505024945e-17
9606457357557090.0,1.3250972217919052e-26,1.3250972217919052e-26,4.23310462996792e-17
1.0616777297305926e+16,6.284802558331491e-27,6.284802558331491e-27,2.0002900588645262e-17
1.1733353512668278e+16,2.804632745835456e-27,2.804632745835456e-27,8.892619468841141e-18
1.2967361073701722e+16,1.1700835610844413e-27,1.1700835610844413e-27,3.696012664570687e-18
1.4331150342841368e+16,4.550067664640981e-28,4.550067664640981e-28,1.4320563281420738e-18
1.5838370581478122e+16,1.6384449106846334e-28,1.6384449106846334e-28,5.139379838392905e-19
1.75041065563545e+16,5.448464240713632e-29,5.448464240713632e-29,1.7039097165967436e-19
1.934502951298026e+16,1.6618392380166507e-29,1.6618392380166507e-29,5.1836547398235066e-20
2.137956402706088e+16,4.6345170527551765e-30,4.6345170527551765e-30,1.4424403234837585e-20
2.3628072403844e+16,1.1735611486965254e-30,1.1735611486965254e-30,3.645630573332179e-21
2.6113058470914136e+16,2.685007725058946e-31,2.685007725058946e-31,8.32548214332656e-22
2.885939280406323e+16,5.510936635878155e-32,5.510936635878155e-32,1.7052528709729855e-22
3.189456164037229e+16,1.0065426670563737e-32,1.0065426670563737e-32,3.1064403374932494e-23
3.5248941969710564e+16,1.6217342184660638e-33,1.6217342184660638e-33,4.988435040340827e-24
3.895610555786031e+16,2.2743018006548776e-34,2.2743018006548776e-34,6.967661406912043e-25
4.305315494403222e+16,2.73758423713387e-35,2.73758423713387e-35,8.349515373541936e-26
4.758109477554926e+16,2.7645784952965645e-36,2.7645784952965645e-36,8.394191396034605e-27
5.258524219613826e+16,2.2897487615519077e-37,2.2897487615519077e-37,6.924070758283118e-28
5.811568039513628e+16,1.5033007140618384e-38,1.5033007140618384e-38,4.5306398111517684e-29
6.422775985688378e+16,7.591591403015973e-40,7.591591403015973e-40,2.2820819301905487e-30
7.098265232697431e+16,2.826200626686625e-41,2.826200626686625e-41,8.480566429446714e-32
7.844796303964682e+16,7.49119595918471e-43,7.49119595918471e-43,2.2452832438080955e-33
8.669840733369107e+16,1.3465483480443065e-44,1.3465483480443065e-44,4.033268303119346e-35
9.581655842867162e+16,1.5772220002849507e-46,1.5772220002849507e-46,4.722844235991073e-37
1.058936738454641e+17,1.1386153424950213e-48,1.1386153424950213e-48,3.40939919200279e-39
1.170306087421945e+17,4.831442460023731e-51,4.831442460023731e-51,1.4469506860427118e-41
1.2933882530656318e+17,1.1295785739870557e-53,1.1295785739870557e-53,3.3839600169141685e-44
1.4294150830688045e+17,1.3735101822747029e-56,1.3735101822747029e-56,4.116418552393656e-47
1.5797479796663254e+17,8.049831583101633e-60,8.049831583101633e-60,2.413679712673458e-50
1.745891525015985e+17,2.118173220020239e-63,2.118173220020239e-63,6.354615231528006e-54
1.9295085395624042e+17,2.2857091024141664e-67,2.2857091024141664e-67,6.861164891998725e-58
2.1324367241029872e+17,9.265986609481425e-72,9.265986609481425e-72,2.7831870157691563e-62
2.3567070521151286e+17,1.2656840704351494e-76,1.2656840704351494e-76,3.804174814530291e-67
2.604564096421424e+17,5.227027955119864e-82,5.227027955119864e-82,1.5721704765336486e-72
2.878488493628939e+17,5.723096145659221e-88,5.723096145659221e-88,1.7226445686068355e-78
3.1812217711740755e+17,1.4533150171524893e-94,1.4533150171524893e-94,4.3779600277558967e-85
3.515793785450696e+17,7.300637914685518e-102,7.300637914685518e-102,2.2010542498086827e-92
3.885553045631208e+17,6.152875666491186e-110,6.152875666491186e-110,1.8566776757112796e-100
4.294200226671862e+17,7.173162053276631e-119,7.173162053276631e-119,2.1665488452446945e-109
4.7458252069116026e+17,9.446694909979293e-129,9.446694909979293e-129,2.8560844364283846e-119
5.244948000949035e+17,1.1117001112572092e-139,1.1117001112572092e-139,3.3645252648896185e-130
5.796563997467885e+17,9.116272394127101e-152,9.116272394127101e-152,2.762077756565892e-142
6.406193954765838e+17,3.91718389657282e-165,3.91718389657282e-165,1.1881940582666683e-155
7.079939254359209e+17,6.501070694901693e-180,6.501070694901693e-180,1.974397814440456e-170
7.824542965659995e+17,2.9456021202032628e-196,2.9456021202032628e-196,8.957219729187663e-187
8.647457332880819e+17,2.507353329214594e-214,2.507353329214594e-214,7.635016330964429e-205
9.556918359599866e+17,2.627762019056647e-234,2.627762019056647e-234,8.01289435571052e-225
1.0562028237453011e+18,2.1454267495089182e-256,2.1454267495089182e-256,6.552041148343123e-247
1.1672846443926833e+18,8.153437123461568e-281,8.153437123461568e-281,2.4938902883095234e-271
1.2900490420990697e+18,8.237529773908563e-308,8.237529773908563e-308,2.5238456835725035e-298
1.4257246842192404e+18,0.0,0.0,0.0
1.5756694581816876e+18,0.0,0.0,0.0
1.7413840616824164e+18,0.0,0.0,0.0
1.9245270221718523e+18,0.0,0.0,0.0
2.1269312959550612e+18,0.0,0.0,0.0
2.350622613034485e+18,0.0,0.0,0.0
2.5978397512966943e+18,0.0,0.0,0.0
2.871056942953984e+18,0.0,0.0,0.0
3.1730086374919096e+18,0.0,0.0,0.0
3.5067168689588987e+18,0.0,0.0,0.0
3.875521501498672e+18,0.0,0.0,0.0
