Energy,Neutrino Flux Best Fit,Neutrino Flux Min,Neutrino Flux Max
10450000000.0,1.720429111151758e-30,1.720429111151758e-30,3.095402360875019e-23
11549036093.890518,2.1010605359533582e-30,2.1010605359533582e-30,3.780240507902831e-23
12763658822.773775,2.5658562039414984e-30,2.5658562039414984e-30,4.6165101663138254e-23
14106024539.169233,3.133406539262677e-30,3.133406539262677e-30,5.637660691037091e-23
15589568090.351274,3.826399842475211e-30,3.826399842475211e-30,6.884514974449396e-23
17229137278.81634,4.6725219119361336e-30,4.6725219119361336e-30,8.406888320371158e-23
19041141464.080822,5.7055515353497636e-30,5.7055515353497636e-30,1.0265559846769428e-22
21043715793.066483,6.96669376721869e-30,6.96669376721869e-30,1.253467188397095e-22
23256902702.74629,8.506201547204074e-30,8.506201547204074e-30,1.530464840183492e-22
25702852511.590126,1.0385346483325905e-29,1.0385346483325905e-29,1.868574200815623e-22
28406045107.397022,1.26788117597756e-29,1.26788117597756e-29,2.2812340942874133e-22
31393534950.24023,1.547759436926347e-29,1.547759436926347e-29,2.784819318190039e-22
34695221842.59693,1.88925204308516e-29,1.88925204308516e-29,3.39927346592472e-22
38344150176.6211,2.3058496398858837e-29,2.3058496398858837e-29,4.1488743022250217e-22
42376839653.526855,2.813964055593985e-29,2.813964055593985e-29,5.063157737681723e-22
46833650785.032776,3.4335463198118044e-29,3.4335463198118044e-29,6.178030797502828e-22
51759188834.92895,4.1888268471106496e-29,4.1888268471106496e-29,7.537104880823593e-22
57202750243.54925,5.10917712756673e-29,5.10917712756673e-29,9.193248757929153e-22
63218816003.11529,6.230204344919254e-29,6.230204344919254e-29,1.1210560390992452e-21
69867596921.81837,7.594988367447444e-29,7.594988367447444e-29,1.3666597286850224e-21
77215636233.8253,9.255590555250127e-29,9.255590555250127e-29,1.6655096959454106e-21
85336475586.33195,1.1274774561158434e-28,1.1274774561158434e-28,2.0289082264643736e-21
94311391069.08658,1.3728069927192424e-28,1.3728069927192424e-28,2.4704586220556206e-21
104230206652.81386,1.6706092730459973e-28,1.6706092730459973e-28,3.006484543782135e-21
115192193177.70477,2.0316426810517596e-28,2.0316426810517596e-28,3.656372510669335e-21
127307061889.35129,2.4681433465045344e-28,2.4681433465045344e-28,4.4421912654553996e-21
140696062465.76767,2.9939546723434523e-28,2.9939546723434523e-28,5.388933561366088e-21
155493196524.92114,3.624743681471997e-28,3.624743681471997e-28,6.524914583372406e-21
171846558757.96423,4.378123762840406e-28,4.378123762840406e-28,7.882006822709494e-21
189919819110.68005,5.274250783905347e-28,5.274250783905347e-28,9.496720576912212e-21
209893860847.31113,6.336004604979421e-28,6.336004604979421e-28,1.1410550858078688e-20
231968590891.0651,7.589917805460382e-28,7.589917805460382e-28,1.3671658916966748e-20
256364940559.79272,9.066562731537915e-28,9.066562731537915e-28,1.633559569191778e-20
283327076720.875,1.0801339181067081e-27,1.0801339181067081e-27,1.9466745342001978e-20
313124845495.2989,1.2835542748499874e-27,1.2835542748499874e-27,2.31402768268567e-20
346056472968.33466,1.5217903975890849e-27,1.5217903975890849e-27,2.7444943722084604e-20
382451549936.435,1.7999543577228307e-27,1.7999543577228307e-27,3.2474176512512985e-20
422674330562.70435,2.1209951978951486e-27,2.1209951978951486e-27,3.8283412145487314e-20
467127377954.9937,2.495895833797371e-27,2.495895833797371e-27,4.507170399501034e-20
516255593152.79047,2.9289444977219475e-27,2.9289444977219475e-27,5.2919656322778596e-20
570550667846.3573,3.4348916487719816e-27,3.4348916487719816e-27,6.209503070709232e-20
630556005392.4329,4.02029818767595e-27,4.02029818767595e-27,7.272079664062735e-20
696872159377.6678,4.704397058152205e-27,4.704397058152205e-27,8.514689110197195e-20
770162844160.776,5.496927448014755e-27,5.496927448014755e-27,9.955559776544343e-20
851161577548.9171,6.425269728384314e-27,6.425269728384314e-27,1.1644532693485253e-19
940679022090.4529,7.502937865227664e-27,7.502937865227664e-27,1.3606946707444133e-19
1039611098458.2089,8.767800672879335e-27,8.767800672879335e-27,1.591181004367109e-19
1148947952124.691,1.0240547252641664e-26,1.0240547252641664e-26,1.8597789627120112e-19
1269783863070.7805,1.1964806542064254e-26,1.1964806542064254e-26,2.1744861989340734e-19
1403328197707.5762,1.3970452639376853e-26,1.3970452639376853e-26,2.54088315505918e-19
1550917512621.9255,1.6320175937116804e-26,1.6320175937116804e-26,2.9704624350526227e-19
1714028931283.974,1.9056148757378955e-26,1.9056148757378955e-26,3.4711046557500257e-19
1894294927595.3303,2.225444634639706e-26,2.225444634639706e-26,4.0568303179531044e-19
2093519664236.5747,2.596886082628238e-26,2.596886082628238e-26,4.737744052894815e-19
2313697049333.756,3.0297991775336615e-26,3.0297991775336615e-26,5.532081410585563e-19
2557030692161.103,3.5312596559301697e-26,3.5312596559301697e-26,6.453183440514514e-19
2825955957603.2964,4.1140933224906664e-26,4.1140933224906664e-26,7.524854781738611e-19
3123164340105.7803,4.787659279568582e-26,4.787659279568582e-26,8.764800198479954e-19
3451630401055.831,5.568366204182306e-26,5.568366204182306e-26,1.0203608164090135e-18
3814641539192.687,6.468734899810697e-26,6.468734899810697e-26,1.1865021698123572e-18
4215830891999.082,7.51035846418586e-26,7.51035846418586e-26,1.3789423704438464e-18
4659213697362.305,8.710390432630588e-26,8.710390432630588e-26,1.6009361391052513e-18
5149227479424.528,1.0096565476913025e-25,1.0096565476913025e-25,1.857693389581791e-18
5690776460815.963,1.1688371800361483e-25,1.1688371800361483e-25,2.152959509274831e-18
6289280645763.26,1.3517475099029737e-25,1.3517475099029737e-25,2.4927519840847095e-18
6950730065313.581,1.5607357189887394e-25,1.5607357189887394e-25,2.881626791601653e-18
7681744727578.62,1.7996021774846548e-25,1.7996021774846548e-25,3.3268765971721778e-18
8489640873000.827,2.0710336802645935e-25,2.0710336802645935e-25,3.833790759370737e-18
9382504197746.871,2.3795110273199976e-25,2.3795110273199976e-25,4.411071894660705e-18
10369270778072.523,2.728027530514517e-25,2.728027530514517e-25,5.064723232139452e-18
11459816505577.39,3.1218914303048686e-25,3.1218914303048686e-25,5.805186499196748e-18
12665055928447.434,3.5644267124734777e-25,3.5644267124734777e-25,6.639265847599207e-18
13997051487921.668,4.0619509200184393e-25,4.0619509200184393e-25,7.57955258803089e-18
15469134243258.51,4.618019369160653e-25,4.618019369160653e-25,8.633523812256838e-18
17096037293457.438,5.24009495118052e-25,5.24009495118052e-25,9.816272359847663e-18
18894043231065.86,5.931447088812781e-25,5.931447088812781e-25,1.1135077126446688e-17
20881147103838.043,6.700220643944756e-25,6.700220643944756e-25,1.260684400464613e-17
23077236515221.332,7.549092305269218e-25,7.549092305269218e-25,1.4238149687499894e-17
25504290666176.03,8.487701819338844e-25,8.487701819338844e-25,1.6049325756220006e-17
28186600330405.93,9.51804595423304e-25,9.51804595423304e-25,1.8046112800423133e-17
31151010964586.062,1.0651825431781423e-24,1.0651825431781423e-24,2.0253472910035064e-17
34427191386716.133,1.1890179776670783e-24,1.1890179776670783e-24,2.2675973590682854e-17
38047930711623.15,1.3247943661404156e-24,1.3247943661404156e-24,2.5345345859325762e-17
42049466515443.17,1.4725309495873579e-24,1.4725309495873579e-24,2.826472689400528e-17
46471847513463.516,1.6341691132364498e-24,1.6341691132364498e-24,3.147544657749079e-17
51359334381125.95,1.809609019366113e-24,1.809609019366113e-24,3.49785565007393e-17
56760842729743.12,2.0015793045168e-24,2.0015793045168e-24,3.8831128716788057e-17
62730432670377.75,2.2099572810254858e-24,2.2099572810254858e-24,4.303342914740185e-17
69327849865603.945,2.438327726180427e-24,2.438327726180427e-24,4.7659796322717236e-17
76619123484180.16,2.686221052911756e-24,2.686221052911756e-24,5.270324903643203e-17
84677227043162.77,2.958244796730371e-24,2.958244796730371e-24,5.825866504795078e-17
93582808751392.2,3.253238149436848e-24,3.253238149436848e-24,6.43045988424207e-17
103424998663874.03,3.576964167381951e-24,3.576964167381951e-24,7.095914571202296e-17
114302300725326.25,3.926981080486612e-24,3.926981080486612e-24,7.817428140884744e-17
126323578630767.53,4.310208135461253e-24,4.310208135461253e-24,8.609166920986864e-17
139609145369966.58,4.7220396342996064e-24,4.7220396342996064e-24,9.461869822219194e-17
154291967360282.72,5.1705713207245376e-24,5.1705713207245376e-24,1.0392137170498591e-16
170518995219261.47,5.648036168831923e-24,5.648036168831923e-24,1.1384163794949432e-16
188452634495808.06,6.163892149553633e-24,6.163892149553633e-24,1.2457373544783773e-16
208272371079506.6,6.705992236062394e-24,6.705992236062394e-24,1.3586848213971061e-16
230176567555730.2,7.285444933430044e-24,7.285444933430044e-24,1.479544466085942e-16
254384448485068.0,7.88435925261537e-24,7.88435925261537e-24,1.6046215858388308e-16
281138294476409.84,8.51605239114928e-24,8.51605239114928e-24,1.7366610370954697e-16
310705867012715.5,9.155490493902873e-24,9.155490493902873e-24,1.87046054996821e-16
343383088297932.75,9.81909775548843e-24,9.81909775548843e-24,2.0094119049377225e-16
379497002945877.4,1.0473363972418532e-23,1.0473363972418532e-23,2.146509795080143e-16
419409051152652.6,1.1139138744336736e-23,1.1139138744336736e-23,2.2860721153248516e-16
463518686111613.25,1.177336223805618e-23,1.177336223805618e-23,2.419046265431565e-16
512267371875189.3,1.2403078149488539e-23,1.2403078149488539e-23,2.551056781582377e-16
566143001675502.0,1.2975042781824375e-23,1.2975042781824375e-23,2.670852210154701e-16
625684780923817.1,1.3524575572968616e-23,1.3524575572968616e-23,2.785821827427954e-16
691488623759536.5,1.3988153772211032e-23,1.3988153772211032e-23,2.8824846948977515e-16
764213117159192.8,1.4410856317727875e-23,1.4410856317727875e-23,2.970361473996962e-16
844586112296277.1,1.4715388575645215e-23,1.4715388575645215e-23,3.0331413107812786e-16
933412009120418.4,1.495272878197254e-23,1.495272878197254e-23,3.081889704077348e-16
1031579807062447.1,1.5038326906294293e-23,1.5038326906294293e-23,3.0986865286174355e-16
1140072002439505.8,1.504239573350697e-23,1.504239573350697e-23,3.0985818968753703e-16
1259974421608410.2,1.487805509158805e-23,1.487805509158805e-23,3.063028111028635e-16
1392487088280799.2,1.4631057436576394e-23,1.4631057436576394e-23,3.010404222566076e-16
1538936233763775.8,1.4214339609955166e-23,1.4214339609955166e-23,2.9220637916966634e-16
1700787570328591.0,1.3728760815932678e-23,1.3728760815932678e-23,2.8195390763629787e-16
1879660960551701.5,1.3090955612060451e-23,1.3090955612060451e-23,2.684951675023423e-16
2077346629443877.0,1.2412780936694824e-23,1.2412780936694824e-23,2.5420413768092733e-16
2295823081623841.0,1.1616243796939121e-23,1.1616243796939121e-23,2.374179272430161e-16
2537276902857482.0,1.0805948938859213e-23,1.0805948938859213e-23,2.203754184600266e-16
2804124644143138.5,9.843264416554338e-24,9.843264416554338e-24,2.0038055391179065e-16
3099037007366224.5,8.921533461799349e-24,8.921533461799349e-24,1.8120919891268887e-16
3424965574581337.5,7.964784924825998e-24,7.964784924825998e-24,1.613341769264594e-16
3785172348437543.0,7.057028459981641e-24,7.057028459981641e-24,1.4251704334121845e-16
4183262399397273.0,6.1385084033282825e-24,6.1385084033282825e-24,1.2357377331395155e-16
4623219946493219.0,5.2781682248395025e-24,5.2781682248395025e-24,1.0591355163372091e-16
5109448232731565.0,4.436763480207157e-24,4.436763480207157e-24,8.876231781100947e-17
5646813594227936.0,3.669106507454108e-24,3.669106507454108e-24,7.319699263979226e-17
6240694164134934.0,2.9611738632616345e-24,2.9611738632616345e-24,5.892115320047724e-17
6897033698806339.0,2.3415941398498887e-24,2.3415941398498887e-24,4.6482499913299354e-17
7622401064908478.0,1.8036931210648045e-24,1.8036931210648045e-24,3.572837402257488e-17
8424055982845710.0,1.3541757696552918e-24,1.3541757696552918e-24,2.6775912423774574e-17
9310021684482242.0,9.850411184558308e-25,9.850411184558308e-25,1.9452000234731326e-17
1.0289165212343422e+16,6.952819500657742e-25,6.952819500657742e-25,1.3716733978586304e-17
1.1371286163957594e+16,4.7273493044951105e-25,4.7273493044951105e-25,9.324040724847825e-18
1.2567214769521918e+16,3.1164777384856982e-25,3.1164777384856982e-25,6.144749905245237e-18
1.3888920284486394e+16,1.9781804085312685e-25,1.9781804085312685e-25,3.9003060035674864e-18
1.5349630781885308e+16,1.225867501615502e-25,1.225867501615502e-25,2.4137090920174367e-18
1.6963965543338402e+16,7.342420968807465e-26,7.342420968807465e-26,1.4428549500771932e-18
1.8748081373734948e+16,4.2880919095219586e-26,4.2880919095219586e-26,8.394849942394106e-19
2.071983430396759e+16,2.4123539419450365e-26,2.4123539419450365e-26,4.70117881329227e-19
2.2898958300091196e+16,1.2973534891255194e-26,1.2973534891255194e-26,2.5155887630569444e-19
2.530726276748775e+16,6.612110393242568e-27,6.612110393242568e-27,1.2757693672867352e-19
2.796885082672608e+16,3.157118805360761e-27,3.157118805360761e-27,6.06491307697906e-20
3.091036054569369e+16,1.4200559509242877e-27,1.4200559509242877e-27,2.715991367134351e-20
3.4161231542333556e+16,5.911280978086324e-28,5.911280978086324e-28,1.1266196917433027e-20
3.77539996262356e+16,2.356683038307811e-28,2.356683038307811e-28,4.469290031758117e-21
4.172462242795444e+16,8.743554408029483e-29,8.743554408029483e-29,1.6504104125354757e-21
4.611283927506215e+16,3.1367857504017347e-29,3.1367857504017347e-29,5.882741790085006e-22
5.096256891669521e+16,1.0598367677407103e-29,1.0598367677407103e-29,1.9744352875768885e-22
5.632234907715747e+16,3.398039833627117e-30,3.398039833627117e-30,6.285936793665554e-23
6.224582223777933e+16,1.0109828180055703e-30,1.0109828180055703e-30,1.8579106195312135e-23
6.879227250890012e+16,2.761075072405305e-31,2.761075072405305e-31,5.043769164277789e-24
7.602721896517125e+16,6.71039968441077e-32,6.71039968441077e-32,1.2197585038509766e-24
8.402307138247656e+16,1.4425897274466424e-32,1.4425897274466424e-32,2.611035213737796e-25
9.285985493930726e+16,2.594758902364493e-33,2.594758902364493e-33,4.682046655512072e-26
1.0262601113564582e+17,3.975411481407649e-34,3.975411481407649e-34,7.154413108389044e-27
1.1341928294522309e+17,4.949678093050332e-35,4.949678093050332e-35,8.890568279741041e-28
1.2534769306005402e+17,5.09480642090782e-36,5.09480642090782e-36,9.135761147746271e-29
1.3853062501784458e+17,4.206806342991758e-37,4.206806342991758e-37,7.533313781032145e-30
1.5310001803256426e+17,2.7364810757883437e-38,2.7364810757883437e-38,4.895145422543684e-31
1.692016874864475e+17,1.3552190360707992e-39,1.3552190360707992e-39,2.422463235664507e-32
1.869967842993456e+17,4.909009077217637e-41,4.909009077217637e-41,8.770768685923601e-34
2.066634077813019e+17,1.2536913638951155e-42,1.2536913638951155e-42,2.2394206620332194e-35
2.2839838811030368e+17,2.1590477329740173e-44,2.1590477329740173e-44,3.856461283756874e-37
2.524192562748619e+17,2.4071581465799655e-46,2.4071581465799655e-46,4.30013668667115e-39
2.7896642119726166e+17,1.6513033378763684e-48,1.6513033378763684e-48,2.9505579645355884e-41
3.0830557582685485e+17,6.634553353918597e-51,6.634553353918597e-51,1.1858712143237284e-43
3.4073035628440685e+17,1.4698735305075243e-53,1.4698735305075243e-53,2.6283680964004617e-46
3.7656528067108096e+17,1.690365820370299e-56,1.690365820370299e-56,3.024177373937043e-49
4.1616899695467155e+17,9.3887675666881e-60,9.3887675666881e-60,1.6806572284253427e-52
4.5993787243901645e+17,2.3386741849517804e-63,2.3386741849517804e-63,4.189115026992851e-56
5.083099607411868e+17,2.3952919749394657e-67,2.3952919749394657e-67,4.293526135359559e-60
5.617693859793346e+17,9.210034534159934e-72,9.210034534159934e-72,1.652192983361885e-64
6.208511880495749e+17,1.19673511594886e-76,1.19673511594886e-76,2.148636923236925e-69
6.861466774851039e+17,4.6996634329796705e-82,4.6996634329796705e-82,8.445851056211853e-75
7.583093534907685e+17,4.908339659318638e-88,4.908339659318638e-88,8.829707296209208e-81
8.380614443827418e+17,1.1888112268234332e-94,1.1888112268234332e-94,2.1409777142179696e-87
9.262011358922793e+17,5.714456281929446e-102,5.714456281929446e-102,1.0303547785670791e-94
1.0236105596767794e+18,4.6092450475840695e-110,4.6092450475840695e-110,8.321723419762542e-103
1.1312646219899114e+18,5.160006450416315e-119,5.160006450416315e-119,9.328920934415692e-112
1.2502407608710927e+18,6.528261696087262e-129,6.528261696087262e-129,1.1820652335725349e-121
1.3817297295074988e+18,7.405462445045597e-140,7.405462445045597e-140,1.3430275945553384e-132
1.5270475136922207e+18,5.857683702818563e-152,5.857683702818563e-152,1.0641867553784444e-144
1.6876485026523692e+18,2.4360978993824334e-165,2.4360978993824334e-165,4.433744881320415e-158
1.8651400450653066e+18,3.916662244681878e-180,3.916662244681878e-180,7.142505274948566e-173
2.0612985359444828e+18,1.7249108993721253e-196,1.7249108993721253e-196,3.1519674355269496e-189
2.278087195397756e+18,1.4287736051863593e-214,1.4287736051863593e-214,2.6165928753072635e-207
2.5176757171941094e+18,1.4618706857487097e-234,1.4618706857487097e-234,2.6832250871265604e-227
2.7824619837881825e+18,1.1667970143176116e-256,1.1667970143176116e-256,2.1468259582680835e-249
3.0750960651337667e+18,4.348673180532376e-281,4.348673180532376e-281,8.02090804495174e-274
3.398506741474702e+18,4.315316729944202e-308,4.315316729944202e-308,7.980345024710746e-301
3.7559308155618785e+18,0.0,0.0,0.0
4.150945507663129e+18,0.0,0.0,0.0
4.587504257586052e+18,0.0,0.0,0.0
5.069976292032308e+18,0.0,0.0,0.0
5.603190353287122e+18,0.0,0.0,0.0
6.192483026894949e+18,0.0,0.0,0.0
6.843752152001342e+18,0.0,0.0,0.0
7.563515848909523e+18,0.0,0.0,0.0
8.358977754619031e+18,0.0,0.0,0.0
9.238099119246244e+18,0.0,0.0,0.0
1.0209678484891218e+19,0.0,0.0,0.0
