Energy,Neutrino Flux Best Fit,Neutrino Flux Min,Neutrino Flux Max
5625000000.0,1.089826910173792e-22,1.068267988110661e-31,2.6545284645682425e-22
6216586414.175518,1.3309661668112757e-22,1.3046345533942916e-31,3.2418876253244014e-22
6870390514.650955,1.6254351232273586e-22,1.5932743253867984e-31,3.959148714900024e-22
7592955792.615018,1.9850173987084214e-22,1.945737087711314e-31,4.835015878009781e-22
8391513924.232145,2.4240957863471825e-22,2.3761200554773385e-31,5.904525214294067e-22
9274057147.688221,2.9602236104485943e-22,2.9016277887481734e-31,7.210436912797564e-22
10249418252.196613,3.614820817855208e-22,3.5432543111628817e-31,8.804931404431017e-22
11327358979.521431,4.414021647798495e-22,4.3266137205416825e-31,1.0751675005709511e-21
12518667722.770132,5.389706327866784e-22,5.282951058697609e-31,1.3128334212666082e-21
13835267500.257843,6.580755936808061e-22,6.450371751465667e-31,1.6029634161605824e-21
15290335285.082129,8.034577533744873e-22,7.87533570698016e-31,1.957107623838755e-21
16898433884.698689,9.808956064377787e-22,9.614471349939224e-31,2.3893452854855543e-21
18675657690.39308,1.197430060615343e-21,1.1736775651867305e-30,2.916832449360619e-21
20639793755.35825,1.4616365381187345e-21,1.4326278757140631e-30,3.5604655698327735e-21
22810499813.5013,1.783954078602108e-21,1.748526622771406e-30,4.345684312332479e-21
25209501020.65161,2.1770826526799432e-21,2.1338168287301206e-30,5.3034410255668885e-21
27860807387.222523,2.6564608201127382e-21,2.6036234129105748e-30,6.471366721696476e-21
30790954078.465504,3.240828737371976e-21,3.176303748822e-30,7.89514668358338e-21
34029266987.322823,3.952932180149127e-21,3.8741364713289766e-30,9.630239467127752e-21
37608156237.82089,4.820333113226148e-21,4.72411356271759e-30,1.1743859200213536e-20
41563440556.48491,5.8763983192531614e-21,5.758906428703267e-30,1.431739336375298e-20
45934705758.19304,7.161439891583119e-21,7.017979010194864e-30,1.7449196406542907e-20
50765700934.31693,8.724090332173864e-21,8.54892950009952e-30,2.1257959216341403e-20
56104776308.33282,1.0622868920393541e-20,1.0409016248303194e-29,2.5886555206859464e-20
62005367141.109024,1.2927659668150995e-20,1.2666587009876412e-29,3.150570355372033e-20
68526528528.95704,1.5719441815710955e-20,1.54007533377461e-29,3.831351258284795e-20
75733526446.88452,1.9091692413847687e-20,1.8702722322475082e-29,4.6539036268902245e-20
83698490952.40971,2.3152016132310493e-20,2.2677341278028026e-29,5.644641602729865e-20
92501138087.42093,2.8023668677533264e-20,2.744451771796168e-29,6.833882979560831e-20
102229567703.11725,3.384902959384409e-20,3.314256574258168e-29,8.256713858089577e-20
112981145192.93063,4.07915008544405e-20,3.9929953527610925e-29,9.953488025788217e-20
124863475958.1092,4.904083531077113e-20,4.799044621025452e-29,1.1971150898416883e-19
137995482358.7401,5.881605404499927e-20,5.753580241309131e-29,1.4364003165590695e-19
152508593928.70065,7.037073410846826e-20,6.881079440831093e-29,1.71950417530419e-19
168548062766.60828,8.39991486158072e-20,8.209902409035649e-29,2.0537521304103397e-19
186274417267.64426,1.0004553737206904e-19,9.773180194531975e-29,2.447728000346235e-19
205865068745.6887,1.1888305432348306e-19,1.1606666880644738e-28,2.910788565288086e-19
227516087025.37912,1.4080834033877784e-19,1.3738157789814799e-28,3.450576188133351e-19
251444162774.8172,1.6650171758148252e-19,1.6233375094958867e-28,4.0839753420796703e-19
277888776218.6073,1.9634753316057874e-19,1.9128029019208622e-28,4.820986586133791e-19
307114593936.43634,2.3127592977879463e-19,2.2511758828717986e-28,5.684765006359826e-19
339414117735.16125,2.718023165289052e-19,2.6432144292648004e-28,6.688821393503726e-19
375110612105.204,3.191708071062833e-19,3.100868231362594e-28,7.864257041506748e-19
414561339560.2263,3.7407321809200875e-19,3.6304817045840892e-28,9.229343835821119e-19
458161136240.4458,4.382724267827627e-19,4.248968527107155e-28,1.0828212417150858e-18
506346363565.4352,5.126718300808705e-19,4.9645354287538675e-28,1.2684976580508638e-18
559599275485.8779,5.997237218074143e-19,5.80066860067896e-28,1.4861161922098723e-18
618452845043.1948,7.007075420659489e-19,6.76897363454851e-28,1.7390975714148177e-18
683496098542.8842,8.186375409249074e-19,7.898100856088679e-28,2.0350751062812726e-18
755380010727.7623,9.5529193169535e-19,9.20413292014602e-28,2.3788184082643096e-18
834824019951.9934,1.1149113785969434e-18,1.0727328551985147e-27,2.78108237975075e-18
922623228561.9479,1.299963434559599e-18,1.2489947135543139e-27,3.2485044248447753e-18
1019656360547.7256,1.5158029941551956e-18,1.4542467696872811e-27,3.79478160986535e-18
1126894556108.204,1.7656384770755936e-18,1.691356356743406e-27,4.4286317544675835e-18
1245411091148.5527,2.056475647629956e-18,1.9668921452584375e-27,5.168089944596668e-18
1376392118986.2397,2.3926003877071224e-18,2.284661671581896e-27,6.024875519812884e-18
1521148541772.1094,2.7831758934108687e-18,2.653209068424581e-27,7.022731542794544e-18
1681129130439.714,3.2339859709059757e-18,3.0776524791739408e-27,8.177538756033617e-18
1857935024491.7751,3.7568812355185236e-18,3.568971038033183e-27,9.520234143953242e-18
2053335756742.475,4.359784388223384e-18,4.134169229202041e-27,1.1072592012639328e-17
2269286963396.635,5.058291992792434e-18,4.7876243229370466e-27,1.2875563718561441e-17
2507949956714.159,5.863524581398986e-18,5.539202864556342e-27,1.4959598936719012e-17
2771713356149.567,6.795797865414456e-18,6.4075271702523584e-27,1.737838197501793e-17
3063216994458.353,7.869199572672391e-18,7.404994969023869e-27,2.0170816952857278e-17
3385378338030.4624,9.10875539042395e-18,8.554300909513477e-27,2.340383130324191e-17
3741421685874.535,1.0533223120479305e-17,9.871955996585936e-27,2.7129214586992917e-17
4134910439486.0996,1.2174531687562979e-17,1.1386707010644266e-26,3.143303269495442e-17
4569782766567.431,1.4057531740643662e-17,1.3120468007262802e-26,3.638376710802475e-17
5050391015533.604,1.6223239020876652e-17,1.5109952926167518e-26,4.209267372576878e-17
5581545275278.272,1.870510548894265e-17,1.7384853524552947e-26,4.86513096420547e-17
6168561516160.079,2.1557018549538306e-17,1.999330321524203e-26,5.620617759004274e-17
6817314794020.748,2.482537122687722e-17,2.297700147938337e-26,6.488255827043509e-17
7534298049718.602,2.85828194464903e-17,2.640099730862374e-26,7.487748835535514e-17
8326687092663.073,3.289509558904497e-17,3.0325355772083875e-26,8.636527630985922e-17
9202412418727.09,3.786246048855637e-17,3.4840409626559673e-26,9.961596994123462e-17
10170238581315.355,4.358003067331584e-17,4.003473517443703e-26,1.1487639732911425e-16
11239851909960.67,5.019006269607519e-17,4.603780996876011e-26,1.3252546640897873e-16
12421957454365.55,5.783381231305834e-17,5.298382797688499e-26,1.5292111448827374e-16
13728386124137.816,6.671803382900144e-17,6.106333679470171e-26,1.7660634652755547e-16
15172213096510.37,7.705461848058172e-17,7.048140982269081e-26,2.0410580898446866e-16
16767888677109.723,8.914738043081777e-17,8.152162581466352e-26,2.3620577543284464e-16
18531382923471.6,1.0331444505874769e-16,9.449693936565138e-26,2.7367745532100077e-16
20480345478744.516,1.200036164369208e-16,1.0983028532764948e-25,3.176636474944187e-16
22634282215250.51,1.3968974594781562e-16,1.2799532467851035e-25,3.692942705030548e-16
25014750455811.7,1.630307520968855e-16,1.4961986683305343e-25,4.3022742582299177e-16
27645574726682.63,1.9072896248502262e-16,1.7541264780864644e-25,5.021077472790088e-16
30553085201416.75,2.2374738756708055e-16,2.0630066966809498e-25,5.873360110234886e-16
33766381222093.285,2.6311553203601636e-16,2.4333273654815324e-25,6.882907811309026e-16
37317622535313.13,3.102250925413614e-16,2.87857784728904e-25,8.08411369858819e-16
41242351157752.48,3.665616282765898e-16,3.4140090797268553e-25,9.510920019903133e-16
45579847092611.54,4.3411518181296928e-16,4.0590124607786687e-25,1.1212173746175082e-15
50373521457089.11,5.149998808989078e-16,4.835423169049814e-25,1.3235751777623582e-15
55671350955434.59,6.120227401224233e-16,5.770695666763688e-25,1.5650221452156524e-15
61526358045929.2,7.281369685565403e-16,6.895472970929623e-25,1.852200105053448e-15
67997141607470.555,8.672202217235417e-16,8.247763342899238e-25,2.1945543170948613e-15
75148463416848.03,1.0332843864114024e-15,9.869348926103344e-25,2.601057480115287e-15
83051896306372.28,1.2315195982968191e-15,1.1811130951014273e-24,3.084342637788255e-15
91786540488836.9,1.4671456894893997e-15,1.4127663430153331e-24,3.656021772022253e-15
101439815219035.45,1.7467645191097547e-15,1.6883606960689136e-24,4.3321920464028545e-15
112108333715045.42,2.0766762057717e-15,2.0145136257112525e-24,5.126761209044335e-15
123898870095787.78,2.4643020556826852e-15,2.39845668173294e-24,6.0579451323368835e-15
136929428012297.38,2.9143838002707062e-15,2.84533932206431e-24,7.135662107416143e-15
151330421667923.94,3.4246887731743107e-15,3.352661868603195e-24,8.355486104521936e-15
167245981047514.3,3.952050472013123e-15,3.877757713021379e-24,9.61342731682029e-15
184835394418743.72,4.42349922266479e-15,4.347287246256058e-24,1.0737650575717364e-14
204274702542637.34,4.804922618344678e-15,4.727722750073308e-24,1.1645360964199687e-14
225758460548676.66,5.088389640126659e-15,5.0106382428956825e-24,1.2319360940389197e-14
249501685107925.78,5.27486716014409e-15,5.197651815321066e-24,1.2759825206036216e-14
275742006392147.34,5.375543558572249e-15,5.2993218978673696e-24,1.2995334481552804e-14
304742046356430.5,5.41128356575261e-15,5.33720154953016e-24,1.3073128053286349e-14
336792047147987.7,5.4172988382954105e-15,5.345749609104402e-24,1.3079154505068668e-14
372212775947118.9,5.4307818537185806e-15,5.362845997447531e-24,1.3099375198932788e-14
411358735312962.6,5.488378869745184e-15,5.424302295044828e-24,1.3223406867883543e-14
454621711164264.0,5.585236133899462e-15,5.5259080761942545e-24,1.3437647000597475e-14
502434693904531.4,5.661265865757603e-15,5.606727348791561e-24,1.3602363862433237e-14
555276211935527.75,4.946144238069358e-15,4.896994640671162e-24,1.1889015866028825e-14
613675120930356.0,4.39694999091339e-15,4.35301094478079e-24,1.0569723723404015e-14
678215896798785.4,3.893857062556752e-15,3.855393737211056e-24,9.358892546207977e-15
749544485318612.0,3.341006390435179e-15,3.3076512366605547e-24,8.031262648377166e-15
828374766978109.0,2.7466296475728737e-15,2.718333033584746e-24,6.605320360894681e-15
915495701731897.0,2.1450642846704764e-15,2.121332466469402e-24,5.163937057968506e-15
1011779225177351.2,1.5927006823813051e-15,1.5732453801868733e-24,3.840167141518352e-15
1118188975179120.4,1.1688613987189764e-15,1.1531383452524865e-24,2.8229466369042795e-15
1235789936280775.8,8.78088576109316e-16,8.656784207760473e-25,2.1226403634166505e-15
1365759098428070.5,6.791726519980373e-16,6.695505859816642e-25,1.641868074739544e-15
1509397236679919.0,5.440385533155946e-16,5.367613505205734e-25,1.3137879311046328e-15
1668141929802393.8,4.304784878188066e-16,4.250941325427447e-25,1.03833806855335e-15
1843581948040193.5,3.37066087251483e-16,3.3318775717325915e-25,8.119239888050301e-16
2037473154063271.0,2.723342581268563e-16,2.696136602774539e-25,6.546550933884215e-16
2251756076230589.5,2.1353773511479095e-16,2.1168552081463117e-25,5.1240213318837e-16
2488575330050178.0,1.630477376208587e-16,1.6182592963386994e-25,3.9062107431263264e-16
2750301082211966.5,1.1780691289215392e-16,1.1702823960168771e-25,2.818968683500517e-16
3039552772012645.0,7.966794065306461e-17,7.919010828371526e-26,1.904766215167187e-16
3359225327584593.5,4.967147609111607e-17,4.938998728217552e-26,1.18705182798768e-16
3712518139309632.5,2.8683760638812775e-17,2.8525357670503795e-26,6.853512689553964e-17
4102967080393319.5,1.524464816497746e-17,1.515979519185382e-26,3.642674571269342e-17
4534479895072451.0,7.27674428826627e-18,7.233741776473997e-27,1.7395747948790483e-17
5011375308632785.0,3.1553039010149597e-18,3.1347646991067667e-27,7.549209731399161e-18
5538426250663326.0,1.2442820546704866e-18,1.235099149679281e-27,2.980525809789668e-18
6120907624139853.0,4.636148733880395e-19,4.597852557644009e-28,1.1118602835179035e-18
6764649098426869.0,1.6351693464405647e-19,1.6203735554438176e-28,3.925722490973846e-19
7476093454568035.0,5.557370174366175e-20,5.504530767421643e-29,1.3350468783326407e-19
8262361066804293.0,1.8388088836516132e-20,1.8214750863599962e-29,4.416884072785718e-20
9131321165672584.0,6.06868121006751e-21,6.01644819001409e-30,1.4561009489698556e-20
1.009167059590996e+16,2.096617632511341e-21,2.082226810135837e-30,5.01867354784738e-21
1.1153020857398824e+16,6.949148211431481e-22,6.912846666740699e-31,1.6597108063749319e-21
1.2325994300288324e+16,1.8213198388148218e-22,1.812970610413521e-31,4.346188372949481e-22
1.3622330437044842e+16,3.561651077755913e-23,3.5442035291977756e-32,8.502760126408826e-23
1.505500343543868e+16,5.400362165339934e-24,5.367552240219997e-33,1.2913004602429765e-23
1.6638351968375788e+16,6.496358447372989e-25,6.441690301256348e-34,1.5583124413984888e-24
1.8388222720155624e+16,6.237365476958928e-26,6.158140357440008e-35,1.5048838381151178e-25
2.03221289854139e+16,4.757909410552564e-27,4.660430676440922e-36,1.1599877207730688e-26
2.2459425948061604e+16,3.5102221428692983e-28,3.4106207346356192e-37,8.648056659870443e-28
2.4821504394471256e+16,3.008864346468501e-29,2.9263436931130026e-38,7.403595680636433e-29
2.743200479965651e+16,2.6395786332755505e-30,2.5852581800996953e-39,6.436152394462244e-30
3.0317053929091944e+16,1.9627868090466504e-31,1.934950542503913e-40,4.745072075974043e-31
3.3505526324163516e+16,1.1333741243525913e-32,1.1224516533971806e-41,2.7231974967133257e-32
3.702933328828356e+16,4.75097866934633e-34,4.718778818525003e-43,1.1371151240212595e-33
4.0923742265941464e+16,1.4024813828413505e-35,1.3954622280094889e-44,3.34865899987248e-35
4.522772981114169e+16,2.7670006070361726e-37,2.7560069167752858e-46,6.597392670445866e-37
4.998437167785678e+16,3.529638799883602e-39,3.517643700932765e-48,8.409161158828282e-39
5.5241273936651464e+16,2.7499079245323026e-41,2.741303994432021e-50,6.549086312653951e-41
6.105104943223731e+16,1.2538766107471291e-43,1.2500432560149014e-52,2.985897557438221e-43
6.7471844350507544e+16,3.1347219565734032e-46,3.1249483207011646e-55,7.465435135387133e-46
7.456792016510773e+16,4.068635245560357e-49,4.055312429724589e-58,9.691652012925138e-49
8.241029678786354e+16,2.5412202428452835e-52,2.5323390813348035e-61,6.0551099864676205e-52
9.107746335992987e+16,7.129919621865288e-56,7.103007588314893e-65,1.6995352000965763e-55
1.0065616379749464e+17,8.21700622872798e-60,8.183358796695327e-69,1.9595166517536075e-59
1.1124226495405006e+17,3.5689810692223645e-64,3.553031943914344e-73,8.51532307060352e-64
1.2294171608808213e+17,5.250226980427763e-69,5.224598269525492e-78,1.2533697851363095e-68
1.3587160923886106e+17,2.3499732889109392e-74,2.3373851554294164e-83,5.613648921966652e-74
1.5016135112292794e+17,2.8137434897556674e-80,2.797206137245842e-89,6.7262759147491214e-80
1.659539582800056e+17,7.890167162041935e-87,7.839064352010155e-96,1.887689124886895e-86
1.8340748843060176e+17,4.433327519819324e-94,4.4017075658986473e-103,1.061600318509043e-93
2.0269662237079715e+17,4.234898321010856e-102,4.2014948069519825e-111,1.0151252907955109e-101
2.2401441223636627e+17,5.690609601568489e-111,5.6410279593714744e-120,1.3655938741401084e-110
2.4757421363344186e+17,8.786238919696073e-121,8.701326212776636e-130,2.1111811663062755e-120
2.7361182097312685e+17,1.2380346383934454e-131,1.2247846305663267e-140,2.978963865505605e-131
3.0238782738122074e+17,1.2418013417520043e-143,1.2270247164854088e-152,2.992862673031437e-143
3.3419023280180474e+17,6.698516453073931e-157,6.610072241409382e-166,1.617249759449203e-156
3.693373263974841e+17,1.4330670538838427e-171,1.411991575934053e-180,3.466917889004217e-171
4.081808720943132e+17,8.640464094427342e-188,8.499267499785246e-197,2.0949212254442884e-187
4.511096291533897e+17,1.0112956513431675e-205,9.928664247413206e-215,2.458125106152382e-205
4.985532430042173e+17,1.5148709227641816e-225,1.484170786701684e-234,3.6922145413883353e-225
5.509865452805631e+17,1.8405131229294913e-247,1.7988928503433833e-256,4.4999608213520875e-247
6.089343060950481e+17,1.0911106831902653e-271,1.0636647596548054e-280,2.676727208465112e-271
6.729764861148227e+17,1.8068984521126426e-298,1.7561833971376753e-307,4.449830022619225e-298
7.437540410028402e+17,0.0,0.0,0.0
8.219753363175828e+17,0.0,0.0,0.0
9.084232370736436e+17,0.0,0.0,0.0
1.0039629429179283e+18,0.0,0.0,0.0
1.1095506473385373e+18,0.0,0.0,0.0
1.2262431075705623e+18,0.0,0.0,0.0
1.3552082209776906e+18,0.0,0.0,0.0
1.4977367137615816e+18,0.0,0.0,0.0
1.655255058983487e+18,0.0,0.0,0.0
1.8293397531861432e+18,0.0,0.0,0.0
2.0217330945010112e+18,0.0,0.0,0.0
2.2343606201535982e+18,0.0,0.0,0.0
2.469350377887229e+18,0.0,0.0,0.0
2.7290542241800704e+18,0.0,0.0,0.0
3.016071362415317e+18,0.0,0.0,0.0
3.3332743565822095e+18,0.0,0.0,0.0
3.683837880861967e+18,0.0,0.0,0.0
4.0712704928340736e+18,0.0,0.0,0.0
4.4994497482997176e+18,0.0,0.0,0.0
4.972661009163648e+18,0.0,0.0,0.0
5.495640332776373e+18,0.0,0.0,0.0
