Energy,Neutrino Flux Best Fit,Neutrino Flux Min,Neutrino Flux Max
7692982456.14035,3.1122302503270536e-21,4.245894434145786e-22,6.555859105064695e-21
8502060483.792482,3.801097341460176e-21,5.185539036217622e-22,8.007007525003164e-21
9396229990.407621,4.642407975752782e-21,6.333064328154899e-22,9.77931362212928e-21
10384440124.948725,5.669884305164407e-21,7.734432006856389e-22,1.1943830736575714e-20
11476581226.591175,6.924702710764623e-21,9.445753707991858e-22,1.4587322497307643e-20
12683583810.561512,8.457139191538294e-21,1.153552726114976e-21,1.781573231114764e-20
14017527964.407688,1.0328576910455916e-20,1.4087363350778592e-21,2.1758417247653145e-20
15491764249.575508,1.261395515171708e-20,1.7203309107026594e-21,2.657331392820301e-20
17121047318.314861,1.5404756082134194e-20,2.100789783115796e-21,3.2453240421086226e-20
18921683583.19864,1.8812646463694544e-20,2.5653081363629002e-21,3.963358228066673e-20
20911694417.180546,2.2973916555377807e-20,3.1324234378501065e-21,4.840166432472628e-20
23110996517.552822,2.8054888718683504e-20,3.824745909887953e-21,5.910817438730171e-20
25541601238.946953,3.425850469225174e-20,4.6698465646819335e-21,7.218108331321173e-20
28227834890.3691,4.183234426915292e-20,5.701335863229909e-21,8.814259944526106e-20
31196582201.07702,5.107838050120403e-20,6.960172587216823e-21,1.0762980877632464e-19
34477555391.98669,6.236483903935598e-20,8.496250153355311e-21,1.314197872201642e-19
38103591545.565926,7.614059193068295e-20,1.0370313797380483e-20,1.604601133756931e-19
42110981250.392586,9.295249329694193e-20,1.2656246578713358e-20,1.9590571366436202e-19
46539831809.56275,1.1346675157992244e-19,1.5443909248553814e-20,2.391641954033997e-19
51434468648.0607,1.3849445021941597e-19,1.8842476465183204e-20,2.919502076706476e-19
56843878936.51035,1.6902268229076917e-19,2.2984505198393265e-20,3.5635176715020494e-19
62822201871.244125,2.0625180128509453e-19,2.8030730840881703e-20,4.349099084141698e-19
69429270517.57652,2.516406771094166e-19,3.417587238788436e-20,5.307155413213643e-19
76731210639.23256,3.0696064384673275e-19,4.165542991763784e-20,6.475254156988682e-19
84801102507.21655,3.7435619789286597e-19,5.075278880730365e-20,7.898948739722474e-19
93719712311.72758,4.563945148298898e-19,6.180221628614524e-20,9.632978611006878e-19
103576300497.33757,5.561467292270065e-19,7.519737829304703e-20,1.1743088226327292e-18
114469515111.52173,6.7728752194336775e-19,9.140196645201949e-20,1.4308246483483242e-18
126508379107.4747,8.242100040821038e-19,1.1096107799405892e-19,1.7423244347695955e-18
139813381482.4699,1.002185480520117e-18,1.3451987486872786e-19,2.120218719441591e-18
154517683172.24197,1.2175301904258898e-18,1.6283975939751477e-19,2.5782277722718816e-18
170768449770.3887,1.4778417230839397e-18,1.9682605962357403e-19,3.132898009077197e-18
188728324411.0956,1.7922467848534813e-18,2.3755240645735556e-19,3.804162477451376e-18
208577055556.2892,2.1717162422230694e-18,2.8629379299069194e-19,4.616044913813274e-18
230513295978.65955,2.6294504681687326e-18,3.4456736746775864e-19,5.597519184290842e-18
254756590945.37854,3.1813583968625878e-18,4.141848089450917e-19,6.783570855320565e-18
281549575500.9263,3.8462617505929444e-18,4.972284188767183e-19,8.21584187836769e-18
311160402840.1676,4.6451811376042954e-18,5.957994013183476e-19,9.941771212332546e-18
343885428075.65643,5.607474614785559e-18,7.133389198685269e-19,1.2025490185838883e-17
380052174259.21027,6.763643687785671e-18,8.5283930738975e-19,1.4536045905815594e-17
420022610342.6973,8.155945372485735e-18,1.0191336462832182e-18,1.756623519548558e-17
464196773884.96906,9.828702223987467e-18,1.2165082726043821e-18,2.121661596501798e-17
513016774762.2049,1.1842415213120925e-17,1.4516828701384739e-18,2.562086284014169e-17
566971219952.1536,1.426122008575149e-17,1.7307528146676737e-18,3.0924883591654176e-17
626600103676.9917,1.7172965804220002e-17,2.063354339706575e-18,3.732324804190468e-17
692500211846.9967,2.0669785574884798e-17,2.4580288223310972e-18,4.502638523753117e-17
765331094894.5262,2.4878472284983367e-17,2.928447927540848e-18,5.43160566382072e-17
845821668776.424,2.9932148416680237e-17,3.486803871786424e-18,6.549683606004954e-17
934777510209.9172,3.60088382197454e-17,4.151386767889221e-18,7.896803429896776e-17
1033088919155.1619,4.329962511814732e-17,4.93939138735528e-18,9.516797922395547e-17
1141739829236.4883,5.2061728103824267e-17,5.876971986223204e-18,1.1467463308239256e-16
1261817655280.8237,6.256827306044282e-17,6.988244605856188e-18,1.38116263286761e-16
1394524176530.7686,7.518249440023052e-17,8.308798429580168e-18,1.6631447722701773e-16
1541187564455.1968,9.02906170896173e-17,9.871706808787393e-18,2.0016173047305656e-16
1703275675535.7205,1.0840852431265155e-16,1.1726221319484219e-17,2.408300418009465e-16
1882410742067.7305,1.3008190940533415e-16,1.3917913135681555e-17,2.8958481648465337e-16
2080385608006.4558,1.560416851096933e-16,1.651485180123183e-17,3.4809334614982047e-16
2299181672351.8584,1.8705607961922413e-16,1.9579740129732998e-17,4.181426276151177e-16
2540988719655.8076,2.2415584193123783e-16,2.320606967594122e-17,5.020937960132226e-16
2808226836121.872,2.6841809560376153e-16,2.7480008068108594e-17,6.024589905641045e-16
3103570630641.4795,3.2129452191624314e-16,3.2530368847718533e-17,7.225747289438229e-16
3429976003178.6626,3.84289000240085e-16,3.847557495599242e-17,8.659554308046065e-16
3790709728410.4014,4.594337258242265e-16,4.5491656195219993e-17,1.0372887003308344e-15
4189382150705.6147,5.487935624968429e-16,5.3735668113759474e-17,1.2414217173354498e-15
4629983317665.054,6.551796013847075e-16,6.344252547565997e-17,1.4848729663737435e-15
5116922913858.818,7.814160469558606e-16,7.482154414646178e-17,1.7742933412053722e-15
5655074394431.671,9.313863482654375e-16,8.818820818480311e-17,2.1187235312430515e-15
6249823760280.136,1.1089123248615954e-15,1.0381785090444446e-16,2.5271944576427376e-15
6907123462959.797,1.319325062649256e-15,1.2213159577900868e-16,3.0121638724626546e-15
7633551978821.122,1.5677402963659735e-15,1.434878350199178e-16,3.585759435871161e-15
8436379648611.913,1.8614321463513416e-15,1.6844662753733705e-16,4.265036178195226e-15
9323641441491.143,2.207165275977259e-15,1.9746979695666418e-16,5.06607713856529e-15
10304217371700.916,2.614794916285505e-15,2.3129856252088435e-16,6.012057196926794e-15
11387921372733.746,3.093126596677717e-15,2.705186676474645e-16,7.123970517350183e-15
12585599518477.438,3.65539991430638e-15,3.1610421622790546e-16,8.433034128524775e-15
13909238574368.135,4.312847076787824e-15,3.687808839259231e-16,9.966110493517522e-15
15372085964967.652,5.083069849907901e-15,4.298148494446951e-16,1.1764813933210796e-14
16988782358641.072,5.980067287434609e-15,5.000853798895027e-16,1.386271998712941e-14
18775508196286.727,7.027041102128384e-15,5.812342869804838e-16,1.6314785790110643e-14
20750145630627.043,8.240923546277382e-15,6.74296368619397e-16,1.9161730300849595e-14
22932457496803.47,9.651960751940827e-15,7.813838371484886e-16,2.2475301963589938e-14
25344285105473.05,1.1279799148873033e-14,9.036621580896617e-16,2.6302879109074975e-14
28009766837986.652,1.3163393643817278e-14,1.0438258094712062e-15,3.073696389644769e-14
30955579731422.527,1.532418976723065e-14,1.203100389094003e-15,3.5829447959898416e-14
34211206471340.133,1.781168871287516e-14,1.3848878283173833e-15,4.169795511205419e-14
37809230464406.49,2.0647048632851125e-14,1.590326170190767e-15,4.839394919564661e-14
41785661944081.85,2.389232929676623e-14,1.8236747597057508e-15,5.6064906716049495e-14
46180298373139.664,2.756454346351695e-14,2.0857307204433997e-15,6.475265096507044e-14
51037122750050.08,3.174023294497469e-14,2.381736380664965e-15,7.463910714128543e-14
56404743805612.34,3.642554975410544e-14,2.7116837848709254e-15,8.574052125665094e-14
62336882495470.27,4.1713493883300274e-14,3.0819383306690405e-15,9.827794378340729e-14
68892909657492.625,4.758888587730216e-14,3.490986581661436e-15,1.1221710161499647e-13
76138440215073.89,5.416326120607383e-14,3.9464668110593505e-15,1.2782307604574778e-13
84145989873340.98,6.138457250499247e-14,4.444326559857603e-15,1.4497404421713223e-13
92995700880704.36,6.938540423377176e-14,4.993650902219618e-15,1.63985082373152e-13
102776144119416.33,7.80550120921065e-14,5.586401933247568e-15,1.8459476512297144e-13
113585205552730.58,8.755092960125599e-14,6.2333815567200955e-15,2.0717741368980866e-13
125531065900522.36,9.767479372573391e-14,6.920673343541083e-15,2.312629352355567e-13
138733283348294.86,1.086161091530157e-13,7.661283737957682e-15,2.573015427370456e-13
153323990125683.94,1.2005273246812742e-13,8.433063406461761e-15,2.8452806333899423e-13
169449214930223.6,1.32218967044706e-13,9.252094434406208e-15,3.1349909145679746e-13
187270344431633.2,1.4462684018793726e-13,1.008527812227378e-14,3.4305379555088044e-13
206965738483850.75,1.575779414046008e-13,1.0953283154753747e-14,3.7390867876749453e-13
228732515210401.62,1.7037386704625095e-13,1.1809205529067158e-14,4.0440044496210553e-13
252788523828831.53,1.834199562553397e-13,1.26807215027381e-14,4.3549243631774155e-13
279374524958897.34,1.9576580371112245e-13,1.3504479678782135e-14,4.649192411418028e-13
308756600235772.94,2.079742165424373e-13,1.4318678766465564e-14,4.940193504406304e-13
341228815344484.8,2.1881180338926498e-13,1.5041553936849503e-14,5.198509145604811e-13
377116163128129.75,2.290694531965459e-13,1.5726362339383447e-14,5.442966365288212e-13
416777816225480.7,2.3721894273932723e-13,1.6272143614138163e-14,5.637098864446719e-13
460610721791477.94,2.443595755364424e-13,1.675225053672805e-14,5.807105011975929e-13
509053574277775.06,2.486837287572738e-13,1.704741646132409e-14,5.909843489764832e-13
562591206034258.4,2.5167273130370094e-13,1.7255552312030526e-14,5.980659335102726e-13
621759439674166.9,2.512883773294262e-13,1.7242055610637395e-14,5.970910889516032e-13
687150450766899.0,2.494353643813219e-13,1.7131737227776293e-14,5.926095796809755e-13
759418694530148.6,2.439294309256648e-13,1.6779971683934293e-14,5.794099649801627e-13
839287455837695.4,2.370780077486273e-13,1.6337048823460014e-14,5.630085622804823e-13
927556088097520.1,2.2666755117607138e-13,1.5655926624053383e-14,5.381256864201905e-13
1025108013449392.1,2.153024485633606e-13,1.4906067725207445e-14,5.109890228024984e-13
1132919564350567.8,2.0087716777714367e-13,1.3947198396532116e-14,4.765777245227348e-13
1252069755039179.2,1.8609999181933812e-13,1.2956797046586209e-14,4.413631355947532e-13
1383751080671402.8,1.6910930271829252e-13,1.1810377744460687e-14,4.00907457206069e-13
1529281452213783.2,1.5246713742228626e-13,1.0678931097177104e-14,3.6131959869365703e-13
1690117386539166.0,1.3465982939082063e-13,9.460031452235752e-15,3.1899600169797947e-13
1867868583737103.8,1.178578845999126e-13,8.303325305912329e-15,2.7909135706654485e-13
2064314037533393.8,1.0093878783947088e-13,7.130067173908887e-15,2.3894530849328537e-13
2281419840057230.5,8.551433383635147e-14,6.057223040889325e-15,2.0236011537538916e-13
2521358859152046.5,7.082351729843225e-14,5.027096053123216e-15,1.675512273621042e-13
2786532485167233.5,5.787896424611328e-14,4.119257334721126e-15,1.3688057301129753e-13
3079594664879886.0,4.61938137067349e-14,3.2924512386861335e-15,1.0922586131645944e-13
3403478463086169.0,3.62630186036104e-14,2.591170593535805e-15,8.571669302501316e-14
3761425417699640.5,2.7765837556346655e-14,1.985903613100782e-15,6.562425429974993e-14
4157017982152186.5,2.0830891932196236e-14,1.4933391839281539e-15,4.921929989466824e-14
4594215379792107.0,1.5215714846915355e-14,1.091662864384341e-15,3.594879852356178e-14
5077393229122101.0,1.0842106215910258e-14,7.7950508064587515e-16,2.5609166467072374e-14
5611387336459947.0,7.502048045461802e-15,5.399470841089996e-16,1.7717975904809348e-14
6201542094313512.0,5.038307345604039e-15,3.633421338135626e-16,1.1896537064969245e-14
6853763969857236.0,3.2730199188163904e-15,2.3643667318279857e-16,7.726931129530608e-15
7574580618840914.0,2.0513129095114317e-15,1.485223565206532e-16,4.841521717666384e-15
8371206216562418.0,1.2367129024432689e-15,8.98119161464151e-17,2.917919729441704e-15
9251613659758852.0,7.140511644672154e-16,5.206241786924814e-17,1.6839777565905359e-15
1.0224614362036906e+16,3.9369673472027314e-16,2.888598852402958e-17,9.277695347201368e-16
1.1299946441461776e+16,2.0607754713017388e-16,1.5250285296756745e-17,4.851201843197196e-16
1.2488372182915956e+16,1.0211059720216643e-16,7.655119729752431e-18,2.3997458147216995e-16
1.38017857506636e+16,4.7575043421757455e-17,3.6278768155414305e-18,1.1155730989670128e-16
1.5253332229144278e+16,2.0787545571102076e-17,1.622350503890688e-18,4.8589747140292314e-17
1.685753918339627e+16,8.45955349556165e-18,6.7934630746732265e-19,1.9694006110722995e-17
1.8630462055810252e+16,3.2004674954931222e-18,2.661494576396896e-19,7.412466854744255e-18
2.058984485439333e+16,1.1183599541975455e-18,9.678394319259311e-20,2.5743315150450218e-18
2.2755297740765016e+16,3.6081000759863244e-19,3.2623491017828676e-20,8.246776385312172e-19
2.5148493295245972e+16,1.0683992250320243e-19,1.0102143908539724e-20,2.423517087588923e-19
2.77933834233263e+16,2.9049205008585545e-20,2.8677758948913333e-21,6.539189943267325e-20
3.0716439074386004e+16,7.207088960912407e-21,7.384679699991365e-22,1.611358110329712e-20
3.3946915171853864e+16,1.6284983842650354e-21,1.7212339177943458e-22,3.619953084077466e-21
3.751714340631386e+16,3.320797506607315e-22,3.592111526455635e-23,7.3504043487177775e-22
4.146285582193159e+16,6.060196941013697e-23,6.698640338738959e-24,1.3360657243298683e-22
4.582354243476242e+16,9.765833949118724e-24,1.105909494694142e-24,2.1432544947471224e-23
5.064284646210476e+16,1.3695324866924653e-24,1.6078676819471942e-25,2.9836633154088565e-24
5.596900111848836e+16,1.6457275218739391e-25,2.0350315339222288e-26,3.5446932799379086e-25
6.18553123498967e+16,1.6649895109550064e-26,2.204820642075362e-27,3.527567647070227e-26
6.8360692337591256e+16,1.3951947417578926e-27,2.0026733767244837e-28,2.893293878000043e-27
7.555024911102274e+16,9.471525541647584e-29,1.478082568763148e-29,1.9162002774037627e-28
8.349593817087269e+16,5.098038565036265e-30,8.607859715926403e-31,1.0050515930122545e-29
9.227728264389102e+16,2.1045315513035216e-31,3.797438382072708e-32,4.0507777462045615e-31
1.019821691770752e+17,6.45365711851078e-33,1.2263291666397464e-33,1.2174814512405241e-32
1.1270772753677398e+17,1.4036190701523186e-34,2.76582151038796e-35,2.608888257281132e-34
1.2456130271603662e+17,2.0780932726082355e-36,4.189948879039213e-37,3.825651294277315e-36
1.3766152927938056e+17,1.980996649848874e-38,4.04212903283049e-39,3.6291052334304267e-38
1.5213951869739088e+17,1.1588531510576758e-40,2.3722859255474907e-41,2.1208512615799063e-40
1.6814017155438288e+17,3.903234704161941e-43,7.966390711062841e-44,7.156316181406156e-43
1.8582362776215382e+17,7.154085239738306e-46,1.448612988821888e-46,1.3169020572098956e-45
2.0536686929404723e+17,6.6298352841718015e-49,1.3277682086336473e-49,1.2268469942889355e-48
2.2696549148002323e+17,2.9032021652671236e-52,5.7348186645774665e-53,5.406665221484892e-52
2.508356605904682e+17,5.510965528758725e-56,1.0721395452359995e-56,1.0333429940363097e-55
2.7721627730087968e+17,4.1758542799048896e-60,7.986174574744512e-61,7.88844171486628e-60
3.063713676901259e+17,1.1396080624343591e-64,2.1406441629563165e-65,2.169136160612348e-64
3.385927257021887e+17,1.0121120100858552e-69,1.8642187806061055e-70,1.941938437700432e-69
3.74202833518023e+17,2.584099602863001e-75,4.6641520601011024e-76,4.997915769846863e-75
4.135580890656228e+17,1.6738788299996047e-81,2.955771624380492e-82,3.2646233309218127e-81
4.570523729702654e+17,2.3672088422271572e-88,4.0873164216723825e-89,4.655134917655867e-88
5.0512099064420045e+17,6.266242996375033e-96,1.0562189005868236e-96,1.2428420870609324e-95
5.582450289695324e+17,2.5873115687584365e-104,4.255783839977288e-105,5.1747499604141003e-104
6.169561711774234e+17,1.379033045557662e-113,2.210052955062587e-114,2.781891087930457e-113
6.818420181125903e+17,7.602391461548542e-124,1.1868661832501578e-124,1.5464005781792627e-123
7.535519691400449e+17,3.4359922861200095e-135,5.2178012467897464e-136,7.048360791396628e-135
8.328037215522138e+17,9.723647179910999e-148,1.4364119499327409e-148,2.0108385083344647e-147
9.203904535246774e+17,1.2956126071591308e-161,1.8593866105536617e-162,2.701215112316173e-161
1.0171887625099273e+18,5.854992309027822e-177,8.166049953779072e-178,1.2301748087736896e-176
1.1241674385193297e+18,6.327382647351047e-194,8.56681563586449e-195,1.3397224988018737e-193
1.2423971600991585e+18,1.0966899759048078e-212,1.4422995539227816e-213,2.3389768119439295e-212
1.3730612100413614e+18,1.9870008282200751e-233,2.536090461000239e-234,4.268352907333311e-233
1.5174673180754732e+18,2.313208846160511e-256,2.8678726088743208e-257,5.00250494128407e-256
1.677060749067264e+18,1.0244849506235448e-281,1.232971742840461e-282,2.2301757970245532e-281
1.8534387677152975e+18,9.53873901204857e-310,1.115654056513e-310,2.089165223561747e-309
2.0483666245129152e+18,0.0,0.0,0.0
2.263795222968449e+18,0.0,0.0,0.0
2.50188064490331e+18,0.0,0.0,0.0
2.765005729243488e+18,0.0,0.0,0.0
3.055803920272445e+18,0.0,0.0,0.0
3.377185624026666e+18,0.0,0.0,0.0
3.7323673366174213e+18,0.0,0.0,0.0
4.124903836005041e+18,0.0,0.0,0.0
4.5587237594114586e+18,0.0,0.0,0.0
5.038168922442019e+18,0.0,0.0,0.0
5.56803777343545e+18,0.0,0.0,0.0
6.153633417947527e+18,0.0,0.0,0.0
6.800816694014065e+18,0.0,0.0,0.0
7.516064829387725e+18,0.0,0.0,0.0
