Energy,Neutrino Flux Best Fit,Neutrino Flux Min,Neutrino Flux Max
4898305084.745763,5.564892103654666e-32,5.564892103654666e-32,5.502120709425815e-22
5413464327.523088,6.796454054377392e-32,6.796454054377392e-32,6.719858433982839e-22
5982803340.8184595,8.300484939537666e-32,8.300484939537666e-32,8.207033177397344e-22
6612020260.838388,1.0137229586733221e-31,1.0137229586733221e-31,1.002323006287133e-21
7307412502.005545,1.2380238299978292e-31,1.2380238299978292e-31,1.2241198396557975e-21
8075939783.598933,1.5119298962389787e-31,1.5119298962389787e-31,1.494975449927615e-21
8925293784.96368,1.846401242708366e-31,1.846401242708366e-31,1.8257322212598575e-21
9863975126.423182,2.254815106112418e-31,2.254815106112418e-31,2.2296250080640153e-21
10901378446.344461,2.7534970147982627e-31,2.7534970147982627e-31,2.7228074025866907e-21
12047886425.836586,3.362367780519776e-31,3.362367780519776e-31,3.3249930333688373e-21
13314973702.11295,4.105731227179122e-31,4.105731227179122e-31,4.060236712012704e-21
14715321710.517275,5.013232715934002e-31,5.013232715934002e-31,4.957885454633453e-21
16262945604.590889,6.121024699261823e-31,6.121024699261823e-31,6.0537356421655675e-21
17973334524.44003,7.47318286808652e-31,7.47318286808652e-31,7.391440025190906e-21
19863606617.256123,9.123425115014418e-31,9.123425115014418e-31,9.02421711630021e-21
21952680361.486454,1.1137195695352961e-30,1.1137195695352961e-30,1.1016925951633543e-20
24261463909.325226,1.359418575718142e-30,1.359418575718142e-30,1.3448578917057004e-20
26813064342.528152,1.6591345860190395e-30,1.6591345860190395e-30,1.6415355192389642e-20
29633018935.85325,2.0246615490441302e-30,2.0246615490441302e-30,2.00343225593183e-20
32749550742.689987,2.470331955027364e-30,2.470331955027364e-30,2.4447849256006573e-20
36193851060.86369,3.0135529317283762e-30,3.0135529317283762e-30,2.9828984403212065e-20
40000391605.62799,3.675439159913462e-30,3.675439159913462e-30,3.638784379946273e-20
44207269514.17731,4.4815797053571634e-30,4.4815797053571634e-30,4.437935631684917e-20
48856588634.60094,5.4629369273151816e-30,5.4629369273151816e-30,5.4112403910196943e-20
53994880915.34617,6.65680810505067e-30,6.65680810505067e-30,6.595984245860314e-20
59673572112.59837,8.107348526318976e-30,8.107348526318976e-30,8.036527861022955e-20
65949496476.533714,9.866749276180703e-30,9.866749276180703e-30,9.785584341825832e-20
72885465567.59746,1.1996642722579473e-29,1.1996642722579473e-29,1.190574565087495e-19
80550896895.71269,1.4569663511711893e-29,1.4569663511711893e-29,1.4471218141308552e-19
89022508674.05164,1.7671815499381378e-29,1.7671815499381378e-29,1.7570317344764795e-19
98385087640.69891,2.1404636960911893e-29,2.1404636960911893e-29,2.130790927024432e-19
108732337632.82428,2.5888674706415034e-29,2.5888674706415034e-29,2.580907276434648e-19
120167817406.17972,3.126663698688949e-29,3.126663698688949e-29,3.1222658154506535e-19
132805977085.93443,3.770759207271457e-29,3.770759207271457e-29,3.7725908348613986e-19
146773303621.9956,4.541203521079669e-29,4.541203521079669e-29,4.55300412112568e-19
162209586712.9166,5.461836747073452e-29,5.461836747073452e-29,5.488728733168231e-19
179269317868.1854,6.560071805891763e-29,6.560071805891763e-29,6.609102513120188e-19
198123236611.1776,7.864113574967072e-29,7.864113574967072e-29,7.945487026483041e-19
218960039297.69394,9.417901047980801e-29,9.417901047980801e-29,9.544047930742873e-19
241988267652.51227,1.1260675194168809e-28,1.1260675194168809e-28,1.1448978650947611e-18
267438395925.06244,1.3453877126741198e-28,1.3453877126741198e-28,1.3725496591983032e-18
295565137553.18,1.60522892176047e-28,1.60522892176047e-28,1.6436016674086375e-18
326649994420.80286,1.9140880107844303e-28,1.9140880107844303e-28,1.96718661791387e-18
361004074223.4438,2.2795549701777484e-28,2.2795549701777484e-28,2.352067148163791e-18
398971204138.57275,2.7136825383957157e-28,2.7136825383957157e-28,2.8112842579694382e-18
440931371963.57294,3.2268287989637157e-28,3.2268287989637157e-28,3.3570025286990458e-18
487304529161.33704,3.8359163352685764e-28,3.8359163352685764e-28,4.007690234803253e-18
538554793875.65594,4.555297379881371e-28,4.555297379881371e-28,4.7804098825846665e-18
595195095981.6001,5.4074557427090315e-28,5.4074557427090315e-28,5.700236979705603e-18
657792310660.1079,6.412036623522028e-28,6.412036623522028e-28,6.790883531717126e-18
726972931875.3329,7.600672897997475e-28,7.600672897997475e-28,8.087885655041365e-18
803429342536.8074,9.000074485218237e-28,9.000074485218237e-28,9.624019722650234e-18
887926744100.317,1.0652699813238822e-27,1.0652699813238822e-27,1.1447900545687487e-17
981310814961.2686,1.2593970900947411e-27,1.2593970900947411e-27,1.360404626881541e-17
1084516174288.3066,1.4881601593031404e-27,1.4881601593031404e-27,1.6159563688694558e-17
1198575736006.0964,1.7562647218726025e-27,1.7562647218726025e-27,1.91749484095593e-17
1324631046545.0535,2.0715297930897603e-27,2.0715297930897603e-27,2.274256336007175e-17
1463943709821.7021,2.4401821854016453e-27,2.4401821854016453e-27,2.694432986940914e-17
1617908013794.721,2.872729502175462e-27,2.872729502175462e-27,3.190656795020484e-17
1788064884967.4585,3.377386524007224e-27,3.377386524007224e-27,3.7739854308212915e-17
1976117310498.3127,3.968291655042357e-27,3.968291655042357e-27,4.461696549864332e-17
2183947382268.601,4.656277103814118e-27,4.656277103814118e-27,5.2686854962965604e-17
2413635133490.6963,5.460179363204494e-27,5.460179363204494e-27,6.218402705435189e-17
2667479356379.5527,6.393640063815813e-27,6.393640063815813e-27,7.330330919678261e-17
2948020609237.8267,7.481065340653902e-27,7.481065340653902e-27,8.635685601793035e-17
3258066643217.298,8.739679639927822e-27,8.739679639927822e-27,1.0159946947990626e-16
3600720503236.1064,1.0201216298808518e-26,1.0201216298808518e-26,1.1944726489518932e-16
3979411584295.2544,1.188698421306182e-26,1.188698421306182e-26,1.402289316456561e-16
4397929954016.456,1.3837859673971027e-26,1.3837859673971027e-26,1.6449521588489997e-16
4860464284912.756,1.6079740785895465e-26,1.6079740785895465e-26,1.9266496107910409e-16
5371643776030.924,1.8664939965967193e-26,1.8664939965967193e-26,2.254631074446643e-16
5936584483531.438,2.1624401583689973e-26,2.1624401583689973e-26,2.6341691796999274e-16
6560940523898.082,2.5024585563803426e-26,2.5024585563803426e-26,3.0747467980964425e-16
7250960662236.168,2.8901510848372174e-26,2.8901510848372174e-26,3.582888517643868e-16
8013550852013.948,3.333881679749587e-26,3.333881679749587e-26,4.1709028200894744e-16
8856343352166.14,3.8376572098282914e-26,3.8376572098282914e-26,4.846657070288358e-16
9787773113306.617,4.411816095195207e-26,4.411816095195207e-26,5.625925112939681e-16
10817162197549.21,5.060619028210843e-26,5.060619028210843e-26,6.517957200879537e-16
11954813076838.656,5.796844807717111e-26,5.796844807717111e-26,7.542904997294943e-16
13212111743552.531,6.62478220634289e-26,6.62478220634289e-26,8.711331194929515e-16
14601641665339.992,7.560134671167149e-26,7.560134671167149e-26,1.0048799039022548e-15
16137309724695.422,8.60684781915631e-26,8.60684781915631e-26,1.156687941267947e-15
17834485403712.74,9.784173676794455e-26,9.784173676794455e-26,1.3297804869022523e-15
19710154607027.94,1.1095194927087113e-25,1.1095194927087113e-25,1.5253513037251523e-15
21783089662462.016,1.2563498013827499e-25,1.2563498013827499e-25,1.7474398656676637e-15
24074037200787.285,1.4190581181732934e-25,1.4190581181732934e-25,1.9971592498285837e-15
26605925794981.367,1.6005581705045361e-25,1.6005581705045361e-25,2.2795585981708092e-15
29404095437092.156,1.8007667162800005e-25,1.8007667162800005e-25,2.5954930570360663e-15
32496551149395.086,2.023265144641111e-25,2.023265144641111e-25,2.9512127574371814e-15
35914243268069.195,2.2675848818129593e-25,2.2675848818129593e-25,3.346985781681489e-15
39691377204564.17,2.5381342096878175e-25,2.5381342096878175e-25,3.790495810752325e-15
43865755784855.0,2.8338777448081934e-25,2.8338777448081934e-25,4.2809453439940315e-15
48479157592830.42,3.1602475217493596e-25,3.1602475217493596e-25,4.827716305972803e-15
53577755104402.375,3.515392740328052e-25,3.515392740328052e-25,5.4282400439851194e-15
59212576797164.57,3.905994581947089e-25,3.905994581947089e-25,6.093889272988607e-15
65440017860547.14,4.329047809913218e-25,4.329047809913218e-25,6.819320659348839e-15
72322404617827.77,4.792752801224075e-25,4.792752801224075e-25,7.61824555625844e-15
79928618308923.14,5.292513180883249e-25,5.292513180883249e-25,8.481187862573352e-15
88334784476990.56,5.838363982307332e-25,5.838363982307332e-25,9.424634801142557e-15
97625034858450.1,6.423511667806838e-25,6.423511667806838e-25,1.0433167479644937e-14
107892349401680.36,7.060135799615895e-25,7.060135799615895e-25,1.1526596981949905e-14
119239486841593.8,7.738382488012949e-25,7.738382488012949e-25,1.268122032955394e-14
131780013143593.3,8.472835068614666e-25,8.472835068614666e-25,1.3920900108357843e-14
145639438109925.84,9.249325255123797e-25,9.249325255123797e-25,1.5210716496424598e-14
160956471523968.16,1.008498391953479e-24,1.008498391953479e-24,1.6579592113888885e-14
177884411404360.66,1.0959493425570502e-24,1.0959493425570502e-24,1.7977844041749226e-14
196592678263103.75,1.1892537890707337e-24,1.1892537890707337e-24,1.944091671772073e-14
217268510722984.72,1.2855010917002487e-24,1.2855010917002487e-24,2.090025596987643e-14
240118839464649.6,1.3869127458986325e-24,1.3869127458986325e-24,2.2400010139050798e-14
265372358258405.75,1.4893322928838452e-24,1.4893322928838452e-24,2.3848224687504044e-14
293281812808341.9,1.595270089120985e-24,1.595270089120985e-24,2.5301049689045588e-14
324126530316285.8,1.698843909056076e-24,1.698843909056076e-24,2.663847072656716e-14
358215215082323.75,1.803023789516027e-24,1.803023789516027e-24,2.7933654880460757e-14
395889038121197.1,1.8996345513190734e-24,1.8996345513190734e-24,2.903430578112047e-14
437525051716488.4,1.9925851533233218e-24,1.9925851533233218e-24,3.003818844980564e-14
483539963086606.5,2.070835245711367e-24,2.070835245711367e-24,3.0757893127722324e-14
534394304930690.44,2.1402419926248407e-24,2.1402419926248407e-24,3.132675135937834e-14
590597044594648.5,2.18645038468395e-24,2.18645038468395e-24,3.1521991181931553e-14
652710677987431.6,2.2189423474646285e-24,2.2189423474646285e-24,3.1526686654049647e-14
721356859229148.0,2.219832472211768e-24,2.219832472211768e-24,3.108588548025018e-14
797222622374442.9,2.2043847140280646e-24,2.2043847140280646e-24,3.044697414648752e-14
881067257480239.6,2.151229991310715e-24,2.151229991310715e-24,2.932930658928749e-14
973729909835829.1,2.083320060290001e-24,2.083320060290001e-24,2.8052853500323842e-14
1076137978410980.6,1.976089397803255e-24,1.976089397803255e-24,2.6320142571515884e-14
1189316397576534.5,1.8606471074631216e-24,1.8606471074631216e-24,2.4516570810536135e-14
1314397894992080.0,1.709895658720902e-24,1.709895658720902e-24,2.2339077141166443e-14
1452634328325097.8,1.5610888566718369e-24,1.5610888566718369e-24,2.0209564666558993e-14
1605409214263249.5,1.3860521539957079e-24,1.3860521539957079e-24,1.783501976787746e-14
1774251575214419.0,1.2236220788335712e-24,1.2236220788335712e-24,1.5626075450835782e-14
1960851242276882.5,1.0470802933974715e-24,1.0470802933974715e-24,1.3320972140966981e-14
2167075767636915.8,8.910513942331185e-25,8.910513942331185e-25,1.1266434306880551e-14
2394989115658782.5,7.332670735319994e-25,7.332670735319994e-25,9.25332886724406e-15
2646872319733799.0,5.993420188135608e-25,5.993420188135608e-25,7.526446796556412e-15
2925246311629220.5,4.733843027012757e-25,4.733843027012757e-25,5.939430498983638e-15
3232897151820667.0,3.7021145126668206e-25,3.7021145126668206e-25,4.626752789721956e-15
3572903913321791.0,2.8009139228908252e-25,2.8009139228908252e-25,3.4973303846338856e-15
3948669498081924.0,2.0878205275541284e-25,2.0878205275541284e-25,2.5976588137473953e-15
4363954694372505.0,1.508707884039855e-25,1.508707884039855e-25,1.8732547920049197e-15
4822915816020192.0,1.0677339348307372e-25,1.0677339348307372e-25,1.3202555609444774e-15
5330146300192595.0,7.337653731728955e-26,7.337653731728955e-26,9.033903372891085e-16
5890722680061364.0,4.910582486862813e-26,4.910582486862813e-26,6.009117921433229e-16
6510255392452466.0,3.1921005704376683e-26,3.1921005704376683e-26,3.87571779602051e-16
7194944928983625.0,2.0108395571401208e-26,2.0108395571401208e-26,2.4176433960454054e-16
7951643892668556.0,1.2280039794495337e-26,1.2280039794495337e-26,1.4578002791020786e-16
8787925581071121.0,7.224773627702076e-27,7.224773627702076e-27,8.450578036240227e-17
9712159782412836.0,4.095796725330443e-27,4.095796725330443e-27,4.7066168253425785e-17
1.0733596543226592e+16,2.2160647208620818e-27,2.2160647208620818e-27,2.498584094937013e-17
1.1862458745931328e+16,1.142304449369934e-27,1.142304449369934e-27,1.2618713592613843e-17
1.3110044422875416e+16,5.546022946767417e-28,5.546022946767417e-28,6.004905949516799e-18
1.4488839830841742e+16,2.526811178094441e-28,2.526811178094441e-28,2.683553377224859e-18
1.6012644417702372e+16,1.0677693657119519e-28,1.0677693657119519e-28,1.1148040451509192e-18
1.769670893193105e+16,4.1668328151223086e-29,4.1668328151223086e-29,4.2881561428361394e-19
1.9557888057219744e+16,1.4840661508556745e-29,1.4840661508556745e-29,1.5112538616944936e-19
2.1614809099818284e+16,4.8087174063343165e-30,4.8087174063343165e-30,4.8651115712715556e-20
2.3888058416876028e+16,1.4005588630024095e-30,1.4005588630024095e-30,1.415143225412031e-20
2.640038745162357e+16,3.6655078642576685e-31,3.6655078642576685e-31,3.716125280564969e-21
2.917694043746367e+16,8.533939059250024e-32,8.533939059250024e-32,8.72638650607738e-22
3.22455060499102e+16,1.7744791538906548e-32,1.7744791538906548e-32,1.8351633102805495e-22
3.5636795524993092e+16,3.284781388184248e-33,3.284781388184248e-33,3.4380258255513463e-23
3.938475002763073e+16,5.447536611819683e-34,5.447536611819683e-34,5.742707934766034e-24
4.352688034621653e+16,8.09738923937451e-35,8.09738923937451e-35,8.518544572818109e-25
4.810464231319706e+16,1.0727554645849844e-35,1.0727554645849844e-35,1.1128065180473101e-25
5.316385170897652e+16,1.2484558510592535e-36,1.2484558510592535e-36,1.2635024067355376e-26
5.875514280164725e+16,1.2397207967151409e-37,1.2397207967151409e-37,1.2174688999028155e-27
6.493447511176236e+16,1.0191777446339846e-38,1.0191777446339846e-38,9.710248201762231e-29
7.176369347402655e+16,6.665170741631866e-40,6.665170741631866e-40,6.186874104426599e-30
7.93111470011894e+16,3.354069605777578e-41,3.354069605777578e-41,3.0508090954566875e-31
8.765237314493694e+16,1.2436567501912783e-42,1.2436567501912783e-42,1.1152715983797252e-32
9.687085370009934e+16,3.2804320220985754e-44,3.2804320220985754e-44,2.9154188737107954e-34
1.0705885031851069e+17,5.865786480322815e-46,5.865786480322815e-46,5.187855410235121e-36
1.1831832789463155e+17,6.831389606003589e-48,6.831389606003589e-48,6.031640233973154e-38
1.3076197506448565e+17,4.903711823538766e-50,4.903711823538766e-50,4.331969708747801e-40
1.4451433203140224e+17,2.0685192904838653e-52,2.0685192904838653e-52,1.8315107408673956e-42
1.5971303700623402e+17,4.8088498054494486e-55,4.8088498054494486e-55,4.272207808889247e-45
1.7651020373682976e+17,5.813758792072633e-58,5.813758792072633e-58,5.1873848940193647e-48
1.9507394391355136e+17,3.388909219935111e-61,3.388909219935111e-61,3.038421792923144e-51
2.1559004968757725e+17,8.868966409566594e-65,8.868966409566594e-65,7.995100310512928e-55
2.3826385314119373e+17,9.522304423592769e-69,9.522304423592769e-69,8.633034713429543e-59
2.633222813202947e+17,3.8409524128882516e-73,3.8409524128882516e-73,3.503885845988141e-63
2.910161273965245e+17,5.222619884988588e-78,5.222619884988588e-78,4.794707203208943e-68
3.216225606896359e+17,2.147221678553728e-83,2.147221678553728e-83,1.9848698474021456e-73
3.554479006712061e+17,2.3416329853434373e-89,2.3416329853434373e-89,2.1798163267533948e-79
3.9283068271285766e+17,5.923589161968989e-96,5.923589161968989e-96,5.556024954521298e-86
4.3414504626205286e+17,2.9658307652353263e-103,2.9658307652353263e-103,2.8032684363330687e-93
4.7980447935542816e+17,2.4918760440445535e-111,2.4918760440445535e-111,2.3748253604019155e-101
5.302659569460456e+17,2.8977420079462762e-120,2.8977420079462762e-120,2.7848928856527286e-110
5.860345144623238e+17,3.8077151842346965e-130,3.8077151842346965e-130,3.692494355870368e-120
6.476683023723415e+17,4.4736189226781414e-141,4.4736189226781414e-141,4.377957928868345e-131
7.157841723413377e+17,3.6638991617430723e-153,3.6638991617430723e-153,3.620683981933931e-143
7.91063850890495e+17,1.573319535252668e-166,1.573319535252668e-166,1.5701510631868764e-156
8.742607623451036e+17,2.6106354422284684e-181,2.6106354422284684e-181,2.632924672742713e-171
9.662075693584552e+17,1.1833768024539557e-197,1.1833768024539557e-197,1.2061917032806243e-187
1.0678245064795255e+18,1.0082918125646184e-215,1.0082918125646184e-215,1.0393998525544168e-205
1.18012859016965e+18,1.0584033821074957e-235,1.0584033821074957e-235,1.1035019324445344e-225
1.3042437974451136e+18,8.660399328566313e-258,8.660399328566313e-258,9.138978946936847e-248
1.4414123150168822e+18,3.300624486662011e-282,3.300624486662011e-282,3.525360823534139e-272
1.5930069715127544e+18,3.3463804131419e-309,3.3463804131419e-309,3.620361368197786e-299
1.7605449772076603e+18,0.0,0.0,0.0
1.9457031087740562e+18,0.0,0.0,0.0
2.1503344910264684e+18,0.0,0.0,0.0
2.3764871436174474e+18,0.0,0.0,0.0
2.6264244783066716e+18,0.0,0.0,0.0
2.902647951946542e+18,0.0,0.0,0.0
3.2079221019031516e+18,0.0,0.0,0.0
3.545302214475472e+18,0.0,0.0,0.0
3.9181649032274755e+18,0.0,0.0,0.0
4.3302419032716964e+18,0.0,0.0,0.0
4.785657419728427e+18,0.0,0.0,0.0
