Energy,Neutrino Flux Best Fit,Neutrino Flux Min,Neutrino Flux Max
7644628099.173553,6.431783340996184e-20,1.1475339239421201e-32,8.871209195587781e-20
8448620654.710529,7.855436613604313e-20,1.4014960808031873e-32,1.083481771401461e-19
9337169845.439314,9.594151334616013e-20,1.711645418850211e-32,1.32329810932076e-19
10319168570.31242,1.1717627977992437e-19,2.0904057429317987e-32,1.6161834573539426e-19
11404445002.629545,1.431097663181947e-19,2.552944922580517e-32,1.9738767067250623e-19
12603860953.699327,1.7478119492211104e-19,3.117779678471107e-32,2.4107113941271465e-19
13929420581.497694,2.1345942759106595e-19,3.807513093098857e-32,2.9441883345925614e-19
15394390532.315626,2.606936215973442e-19,4.649733719793913e-32,3.5956742564111136e-19
17013432717.81432,3.1837501944543764e-19,5.678111332371305e-32,4.391253996714438e-19
18802751056.365112,3.8881230379995555e-19,6.933731792594253e-32,5.362769769566261e-19
20780253647.310883,4.748234703446434e-19,8.466722451376484e-32,6.54908822461643e-19
22965732001.243397,5.798478032756888e-19,1.0338230213449142e-31,7.997644722761776e-19
25381059120.093445,7.080823001433954e-19,1.2622827189228893e-31,9.766324758208395e-19
28050408409.48596,8.646478097883391e-19,1.5411434068151334e-31,1.192575509427812e-18
31000495614.308468,1.0557912477354955e-18,1.8814869335150454e-31,1.4562092345882228e-18
34260846198.865368,1.28913157021705e-18,2.2968153587590724e-31,1.7780414882621198e-18
37864090847.648605,1.5739585825868883e-18,2.8035717162432156e-31,2.1708843098970265e-18
41846292044.19554,1.9215938378857703e-18,3.4217633042546526e-31,2.6503515226312145e-18
46247304996.54525,2.345833976522062e-18,4.175731870997055e-31,3.2354700487802898e-18
51111176521.556404,2.8634824393445608e-18,5.0950635708269905e-31,3.949412937332539e-18
56486585880.25497,3.494997859329206e-18,6.215697950513367e-31,4.8203932449591295e-18
62427331976.24031,4.265271981926911e-18,7.581239378801045e-31,5.882736319817217e-18
68992871793.19473,5.2045752503939075e-18,9.24454562165829e-31,7.17818313661881e-18
76248915460.36049,6.349687091064117e-18,1.1269593388694153e-30,8.757447939069629e-18
84268083901.59904,7.745193751300595e-18,1.3733491142621722e-30,1.0682005223572645e-17
93130635650.00589,9.44468128447872e-18,1.6727674032764397e-30,1.3025724568147353e-17
102925270102.28566,1.151250729440793e-17,2.0360396537408545e-30,1.5877307681459332e-17
113750015252.12706,1.4025921694394167e-17,2.475968247361627e-30,1.934320698984976e-17
125713208787.3122,1.7077567338936018e-17,3.007663469406044e-30,2.3551064255355452e-17
138934582369.70938,2.0778767044021142e-17,3.649032276734876e-30,2.865423944335351e-17
153546459949.98837,2.526310659349056e-17,4.4212347193823605e-30,3.4836738048899474e-17
169695082110.1943,3.0691249688835494e-17,5.3493982479722934e-30,4.231984639984755e-17
187542069688.64587,3.7256151340765525e-17,6.463275295633493e-30,5.136930392435679e-17
207266041335.60785,4.518956426209822e-17,7.798112705421732e-30,6.230426056269846e-17
229064401188.7789,5.476988832280432e-17,9.395690444270676e-30,7.550808583231578e-17
253155314560.25113,6.633183330628286e-17,1.1305647747732006e-29,9.144168004887153e-17
279779891408.2821,8.027211180282716e-17,1.3585134215395852e-29,1.1065120058105687e-16
309204599446.7962,9.704129794444366e-17,1.629352851064036e-29,1.3375640406578138e-16
341723931043.8287,1.1724250817053828e-16,1.952136429231577e-29,1.615882791983057e-16
377663350600.12744,1.4152104043037016e-16,2.3350798467395985e-29,1.9503449750286624e-16
417382551906.2679,1.707418012268247e-16,2.790820369142751e-29,2.3528659943653805e-16
461279058079.007,2.0582791986886172e-16,3.3307403805769667e-29,2.836146243411369e-16
509792200106.246,2.480121157475675e-16,3.972277084766538e-29,3.417165802067266e-16
563407513819.224,2.986078980123736e-16,4.7310583335029717e-29,4.1139983596875277e-16
622661599298.3102,3.5938700979564795e-16,5.631692892019622e-29,4.951050144373499e-16
688147491346.9642,4.322032191300287e-16,6.695283592963509e-29,5.953831176327227e-16
760520594783.3787,5.195869405551502e-16,7.956190476782509e-29,7.157199301125361e-16
840505243952.184,6.241580710458633e-16,9.443238275409747e-29,8.597215502063968e-16
928901952106.0317,7.494457932956244e-16,1.1201881152257752e-28,1.0322483554014948e-15
1026595423211.2839,8.991229092836855e-16,1.3270918729364267e-28,1.238356714112106e-15
1134563406362.6724,1.0782051792512137e-15,1.5713706971390438e-28,1.4849553135452762e-15
1253886481424.8694,1.291806058977677e-15,1.8581937165958002e-28,1.779085420526118e-15
1385758873838.9658,1.5469094177574905e-15,2.195986823848071e-28,2.1303657932466856e-15
1531500406832.0862,1.8505427688966492e-15,2.5914371242894066e-28,2.548474959540428e-15
1692569710651.844,2.2124396967870486e-15,3.0558584232797767e-28,3.0468195624769287e-15
1870578821028.1309,2.6422016230770193e-15,3.597859762331758e-28,3.6386263408137065e-15
2067309312968.5232,3.153321642495187e-15,4.2325428386866444e-28,4.342481886335225e-15
2284730131359.7583,3.75880427543265e-15,4.970863553626026e-28,5.176306675472442e-15
2525017296829.9604,4.477213920053213e-15,5.832758971261e-28,6.165675750593022e-15
2790575684094.4565,5.325991171772724e-15,6.832001023308066e-28,7.334632057669392e-15
3084063090750.2476,6.330550263394404e-15,7.994859460687216e-28,8.718193254524791e-15
3408416837407.6724,7.514027106255602e-15,9.338455789149507e-28,1.0348269240118252e-14
3766883165382.331,8.910895666378683e-15,1.0896951531937283e-27,1.2272369331352985e-14
4163049726169.295,1.0551111757827152e-14,1.269026991230597e-27,1.453182836666762e-14
4600881487865.091,1.2480771736908942e-14,1.476154069159257e-27,1.7190180604107163e-14
5084760417901.113,1.4738080627819193e-14,1.713349518634493e-27,2.0300176894207457e-14
5619529339246.489,1.7384283458404894e-14,1.9860537578180032e-27,2.3946248327434504e-14
6210540399008.079,2.0466908721509837e-14,2.296709135709937e-27,2.8194069584165905e-14
6863708634517.661,2.406646025129776e-14,2.65208879593519e-27,3.315464741717562e-14
7585571173013.63,2.8240295158925346e-14,3.0546053426469267e-27,3.8907316720893904e-14
8383352657407.637,3.309309881852527e-14,3.512606836848329e-27,4.559646711775868e-14
9265037552939.125,3.869137931551308e-14,4.028154532469188e-27,5.331421582497589e-14
10239450058387.08,4.5169668085306195e-14,4.61143356125475e-27,6.224617382519459e-14
11316342421617.4,5.2600653511501595e-14,5.263614810525973e-27,7.249321675464748e-14
12506492543357.293,6.115496840480217e-14,5.996985522734064e-27,8.4290838419519e-14
13821811846048.416,7.090486789296811e-14,6.811037725272375e-27,9.773964283739062e-14
15275464487366.2,8.206405656059144e-14,7.720530887946548e-27,1.1313466698650289e-13
16881999111534.45,9.469214662317259e-14,8.722192124472871e-27,1.3055950846193154e-13
18657494457046.8,1.0905310216741331e-13,9.83364654338846e-27,1.503787089820187e-13
20619720278085.715,1.2517304109523145e-13,1.1047284466821377e-26,1.7263019753126208e-13
22788315190195.03,1.433735366607993e-13,1.2384065133782064e-26,1.9775819993450933e-13
25184983220145.06,1.6361432737603985e-13,1.3829915376367502e-26,2.2570968037836317e-13
27833711027127.535,1.8628224290177482e-13,1.5409703290015123e-26,2.570191181054083e-13
30761007969302.805,2.1122155168813e-13,1.7100087259436548e-26,2.9147477454185584e-13
33996171418366.68,2.3889316969183607e-13,1.8930589922287506e-26,3.297135459783084e-13
37571579977493.38,2.689564009225933e-13,2.0865071903892766e-26,3.7126894500637975e-13
41523017537278.96,3.019589762802802e-13,2.2938878844795104e-26,4.168977824297839e-13
45890031412945.875,3.3728199917632667e-13,2.5098898186973808e-26,4.657497638147559e-13
50716328147165.68,3.7558030725142555e-13,2.738777166379291e-26,5.187294812508926e-13
56050210939828.89,4.1583767467867824e-13,2.9730494267979193e-26,5.74437658300782e-13
61945063082704.38,4.588531325869287e-13,3.2179510867951713e-26,6.339776980121953e-13
68459882237366.28,5.030719175358736e-13,3.463297189699743e-26,6.952052106391762e-13
75659870903620.92,5.495030105439843e-13,3.715710551124815e-26,7.595130874533735e-13
83617088988039.69,5.958984644262244e-13,3.96187115975004e-26,8.237965583490336e-13
92411175003724.9,6.435858021796443e-13,4.2103492210158926e-26,8.898880554836131e-13
102130143119315.97,6.894721328528886e-13,4.4443481066026016e-26,9.535105529419843e-13
112871264034371.88,7.353691585763547e-13,4.675153557731541e-26,1.0171654161050502e-12
124742038497225.55,7.772151555950852e-13,4.882361204532101e-26,1.0752295360649317e-12
137861273208606.48,8.175343477573809e-13,5.0808967743503493e-26,1.1311902366309188e-12
152360269879033.25,8.512280324786205e-13,5.246835094793315e-26,1.1779814045318148e-12
168384139340464.56,8.818088460227641e-13,5.399615498376895e-26,1.2204605681691964e-12
186093253864279.25,9.03157821536719e-13,5.512084838132438e-26,1.2501394612598101e-12
205664852220870.0,9.200430752876665e-13,5.607450898456285e-26,1.2736226838270662e-12
227294813544831.22,9.253639244476702e-13,5.647101040127105e-26,1.2810718253996126e-12
251199617759174.2,9.252382661328743e-13,5.6467209862216e-26,1.281000757702308e-12
277618512179158.16,9.119512223031003e-13,5.568915796405118e-26,1.2627022654316157e-12
306815905979836.06,8.932527170805425e-13,5.446213271808448e-26,1.2369385592562035e-12
339084016491946.9,8.612286442431354e-13,5.248394155738728e-26,1.1926983302755227e-12
374745793811182.8,8.249439820121092e-13,5.016238553391001e-26,1.142573404441272e-12
414158152991292.1,7.767041929468922e-13,4.724510704772433e-26,1.0758393328529258e-12
457715546169900.6,7.262956509775082e-13,4.4182365574480386e-26,1.0060989529111213e-12
505853910378086.25,6.667207647982165e-13,4.0779573593185553e-26,9.235816893421047e-13
559055030544705.9,6.07611254942023e-13,3.747855393368993e-26,8.416872017287964e-13
617851361361901.5,5.430583054407313e-13,3.41179508930279e-26,7.521557554371762e-13
682831356270621.1,4.813781151306512e-13,3.088536206529474e-26,6.666151410909278e-13
754645356900441.8,4.169993297878682e-13,2.6634471727078615e-26,5.77518348978243e-13
834012101907187.2,3.5779630081089987e-13,2.291001604325006e-26,4.955430099625026e-13
921725920350966.4,3.0030345582091204e-13,1.9315316987878334e-26,4.1590974099272186e-13
1018664681608398.2,2.489038114989898e-13,1.6030368786653144e-26,3.4473779640873155e-13
1125798581384390.5,2.0156363760312346e-13,1.2954733543531148e-26,2.7918638357557445e-13
1244199851756848.0,1.6061817443183038e-13,1.0196072300799045e-26,2.225166909717029e-13
1375053492435702.5,1.2489594368292028e-13,7.769036677142985e-27,1.7307420925278636e-13
1519669130638290.2,9.52666401290594e-14,5.7944543459083294e-27,1.3205633780439383e-13
1679494128278740.0,7.08798998496787e-14,4.247174183005118e-27,9.827360922787919e-14
1856128067652474.0,5.1545721558380405e-14,3.0681073262737443e-27,7.14780320186601e-14
2051338760593461.8,3.6486140371771867e-14,2.1802731735392815e-27,5.059746019078452e-14
2267079941329240.0,2.512158385325748e-14,1.5151647421099605e-27,3.483802973075375e-14
2505510820109721.0,1.6775003119294824e-14,1.029332798978757e-27,2.326195313261695e-14
2769017693309128.5,1.0844262585446825e-14,6.865480081531939e-28,1.503497971206447e-14
3060237826282160.0,6.76689144930539e-15,4.468363269952696e-28,9.37920340895234e-15
3382085848002078.0,4.060031892566066e-15,2.8210006025487414e-28,5.625217171189823e-15
3737782921647117.0,2.334145206847159e-15,1.7110426423636564e-28,3.2326706144562484e-15
4130888983084219.5,1.2784894159413405e-15,9.857245777826735e-29,1.77001120463795e-15
4565338369903763.0,6.644971620331479e-16,5.342628415865777e-29,9.197704827578245e-16
5045479197592521.0,3.257823654880081e-16,2.7202143287871954e-29,4.50878919757644e-16
5576116876934906.0,1.5012537420864374e-16,1.2979535091871866e-29,2.07762977936249e-16
6162562208179273.0,6.456113016396261e-17,5.7347485257076826e-30,8.935861475733066e-17
6810684533311774.0,2.5832673961289116e-17,2.340977440115159e-30,3.576457168804795e-17
7526970478403785.0,9.561030172430541e-18,8.831154671401848e-31,1.3241168318958452e-17
8318588873945805.0,3.273298743512979e-18,3.1227136885858584e-31,4.53365351723025e-18
9193462502912550.0,1.031073933120219e-18,1.0305247683807477e-31,1.4277752668444937e-18
1.0160347394637918e+16,2.989781142319897e-19,3.171698330077845e-32,4.1376363932537075e-19
1.1228920458099498e+16,7.938779146608743e-20,8.997015372759315e-33,1.097617418894126e-19
1.240987633167624e+16,1.9270428813797894e-20,2.3273061155208286e-33,2.6611088772135494e-20
1.3715034418683874e+16,4.2497583594955546e-21,5.480550702022254e-34,5.859138678160087e-21
1.5157457179935958e+16,8.432994576749608e-22,1.1565080931329682e-34,1.1605001444828799e-21
1.6751580867242164e+16,1.4775135426226357e-22,2.083782800291288e-35,2.0307313603522652e-22
1.851336000626847e+16,2.2400426829239986e-23,3.136875136267121e-36,3.07747593084029e-23
2.0460427074792696e+16,2.8928753432292546e-24,3.962289156364309e-37,3.974682121645185e-24
2.261226897446847e+16,3.1355577158242153e-25,4.240064228673876e-38,4.309944378496519e-25
2.4990422062286796e+16,2.813406308908631e-26,3.86491716576533e-39,3.8701252553920637e-26
2.7618687693675456e+16,2.057821053398755e-27,2.9904781208643943e-40,2.833986537481681e-27
3.0523370434463884e+16,1.218137414409263e-28,1.9661612179893044e-41,1.6802842661785311e-28
3.373354132581952e+16,5.747583918343567e-30,1.0628828095893921e-42,7.943563216282685e-30
3.7281328836998744e+16,2.1360735274486336e-31,4.570065510631823e-44,2.958426348226478e-31
4.1202240417866e+16,6.0189723607839746e-33,1.460584886369647e-45,8.351457735882104e-33
4.553551786938659e+16,1.2399268855366457e-34,3.3145212747748566e-47,1.7227345334211867e-34
5.0324530088760024e+16,1.7482925723407218e-36,4.982263305562483e-49,2.430841229596868e-36
5.561720711992044e+16,1.6045981413276851e-38,4.7537202732507176e-51,2.2315833455505569e-38
6.1466519853525896e+16,8.907972097354186e-41,2.691811709990526e-53,1.2387260859531757e-40
6.793101017743621e+16,2.835646079810009e-43,8.63363457125784e-56,3.941811363505077e-43
7.507537688360346e+16,4.7945586091681545e-46,1.4591356817179081e-58,6.661737357024385e-46
8.29711231953271e+16,4.0539174968125846e-49,1.2270930792648075e-61,5.629538272097225e-49
9.169727239554744e+16,1.5749910895348929e-52,4.727554248930822e-65,2.1858823058900845e-52
1.0134115871842005e+17,2.6139548942063604e-56,7.764127232095747e-69,3.6256447317788626e-56
1.1199930141968597e+17,1.679843606375785e-60,4.9311453045005956e-73,2.3286297241499106e-60
1.2377837077382571e+17,3.81871137350202e-65,1.106360519446625e-77,5.290388552974422e-65
1.3679625566601658e+17,2.731761631281789e-70,7.804951347456497e-83,3.782362075746522e-70
1.5118324346372275e+17,5.494649240896124e-76,1.5462184925679768e-88,7.603389647743865e-76
1.670833239764569e+17,2.699453780626594e-82,7.476636443220894e-95,3.733384183759887e-82
1.8465563055419133e+17,2.816772047594454e-89,7.668544486560632e-102,3.8934745449030024e-89
2.0407603274741354e+17,5.265903360156223e-97,1.4082765700166284e-109,7.274973079604978e-97
2.2553889646869446e+17,1.4839069122314383e-105,3.8929491434379774e-118,2.048986731670062e-105
2.4925902927207584e+17,5.128827518174943e-115,1.3191665608209824e-127,7.0784735249897955e-115
2.7547383021926518e+17,1.757264435080287e-125,4.424949040875224e-138,2.424099195289927e-125
3.0444566584923974e+17,4.647273112624117e-137,1.1451108085043931e-149,6.407945752538237e-137
3.364644960307566e+17,7.301064661292027e-150,1.7578350930132918e-162,1.0062787719636712e-149
3.7185077597817056e+17,5.027493443401167e-164,1.1822720046303722e-176,6.926454490346464e-164
4.109586634749373e+17,1.1001927118749955e-179,2.5232763391496584e-192,1.5151681321593585e-179
4.5417956340373824e+17,5.285848873500233e-197,1.182010578251262e-209,7.277050136485451e-197
5.019460450581051e+17,3.758760620060635e-216,8.183088854480223e-229,5.172971569695732e-216
5.547361714413072e+17,2.521898164574205e-237,5.344428977663968e-250,3.469714279683671e-237
6.13078283881558e+17,9.84730823975264e-261,2.0284049110930466e-273,1.354445650207666e-260
6.77556289849625e+17,1.293131634865897e-286,2.589036610770621e-299,1.7781994846831613e-286
7.488155069010406e+17,3.16025748e-315,0.0,4.34472125e-315
8.275691212311028e+17,0.0,0.0,0.0
9.146053254820362e+17,0.0,0.0,0.0
1.0107952072398564e+18,0.0,0.0,0.0
1.117101467171738e+18,0.0,0.0,0.0
1.2345880540578445e+18,0.0,0.0,0.0
1.3644308131483323e+18,0.0,0.0,0.0
1.507929254417847e+18,0.0,0.0,0.0
1.6665195584981012e+18,0.0,0.0,0.0
1.8417889504563656e+18,0.0,0.0,0.0
2.0354915852774477e+18,0.0,0.0,0.0
2.2495661040363274e+18,0.0,0.0,0.0
2.4861550364696893e+18,0.0,0.0,0.0
2.747626244133606e+18,0.0,0.0,0.0
3.036596618757874e+18,0.0,0.0,0.0
3.355958272978052e+18,0.0,0.0,0.0
3.7089074855707105e+18,0.0,0.0,0.0
4.0989766908858296e+18,0.0,0.0,0.0
4.530069832636979e+18,0.0,0.0,0.0
5.006501435882195e+18,0.0,0.0,0.0
5.533039788240981e+18,0.0,0.0,0.0
6.114954662519358e+18,0.0,0.0,0.0
6.758070058367491e+18,0.0,0.0,0.0
7.468822490825557e+18,0.0,0.0,0.0
