Energy,Neutrino Flux Best Fit,Neutrino Flux Min,Neutrino Flux Max
6947791164.658634,1.7820409782486932e-31,1.7820409782486932e-31,1.4841966689025373e-23
7678496740.043656,2.1762890762313856e-31,2.1762890762313856e-31,1.8125581841061004e-23
8486051291.634914,2.65770650697589e-31,2.65770650697589e-31,2.213523989025865e-23
9378537096.813194,3.2455450843889964e-31,3.2455450843889964e-31,2.7031302123098386e-23
10364886453.491556,3.963299283148446e-31,3.963299283148446e-31,3.30094743187279e-23
11454971077.555107,4.839637210480665e-31,4.839637210480665e-31,4.030856436770833e-23
12659700902.31157,5.9095340818706145e-31,5.9095340818706145e-31,4.9219928168941405e-23
13991133268.77078,7.215651449544145e-31,7.215651449544145e-31,6.009896475202904e-23
15462593599.566141,8.810014306767638e-31,8.810014306767638e-31,7.337909581003708e-23
17088808764.263145,1.0756048720240513e-30,1.0756048720240513e-30,8.958875299420495e-23
18886054470.81987,1.3131055058376007e-30,1.3131055058376007e-30,1.0937200040719848e-22
20872318158.34269,1.6029206410237694e-30,1.6029206410237694e-30,1.3351354170128928e-22
23067479021.422604,1.9565178623127792e-30,1.9565178623127792e-30,1.6296900279448336e-22
25493506967.796356,2.387853765302226e-30,2.387853765302226e-30,1.9890154370060753e-22
28174682500.56742,2.913903162366376e-30,2.913903162366376e-30,2.4272603660912465e-22
31137839725.64197,3.55529589248923e-30,3.55529589248923e-30,2.961622508271419e-22
34412634916.48012,4.3370785532084704e-30,4.3370785532084704e-30,3.612985124411868e-22
38031843324.04842,5.28959821687748e-30,5.28959821687748e-30,4.406656850556837e-22
42031687202.547775,6.44962879996218e-30,6.44962879996218e-30,5.373313216565087e-22
46452198333.90818,7.86163668910001e-30,7.86163668910001e-30,6.550057563635757e-22
51337618679.31737,9.5793248748233e-30,9.5793248748233e-30,7.981715426051343e-22
56736843167.6387,1.16673852881964e-29,1.16673852881964e-29,9.722307274070327e-22
62703909052.2933,1.4203597398812117e-29,1.4203597398812117e-29,1.1836813553727071e-21
69298536734.2549,1.7281173757676607e-29,1.7281173757676607e-29,1.440315417021348e-21
76586727463.89548,2.1010570386864786e-29,2.1010570386864786e-29,1.7513754219059486e-21
84641423903.68275,2.5516737561837634e-29,2.5516737561837634e-29,2.1273448056254407e-21
93543240162.86316,3.0940160033492743e-29,3.0940160033492743e-29,2.580047141929868e-21
103381268610.56227,3.743879467507346e-29,3.743879467507346e-29,3.122820696539322e-21
114253971542.16026,4.518887491454298e-29,4.518887491454298e-29,3.7706055748392576e-21
126270166623.03818,5.439090538902601e-29,5.439090538902601e-29,4.540454255308078e-21
139550115972.34805,6.527091485439235e-29,6.527091485439235e-29,5.451665021770504e-21
154226729786.723,7.808993393920278e-29,7.808993393920278e-29,6.52658600625236e-21
170446896550.1975,9.314727303276852e-29,9.314727303276852e-29,7.790926681309093e-21
188372953143.52673,1.1078814376080141e-28,1.1078814376080141e-28,9.274429625451335e-21
208184309566.2524,1.3141416449032367e-28,1.3141416449032367e-28,1.1011786766374828e-20
230079244532.2799,1.5549886814801312e-28,1.5549886814801312e-28,1.3043973516298108e-20
254276889909.89124,1.8353012601104244e-28,1.8353012601104244e-28,1.5413695191274272e-20
281019423867.13495,2.157421388866275e-28,2.157421388866275e-28,1.8143853393428062e-20
310574494672.3311,2.532419485067095e-28,2.532419485067095e-28,2.1328689276150758e-20
343237899407.9005,2.9637675312818632e-28,2.9637675312818632e-28,2.5002033518537096e-20
379336544406.986,3.466283705694549e-28,3.466283705694549e-28,2.929062969990489e-20
419231717041.91266,4.045510345205388e-28,4.045510345205388e-28,3.424762291685912e-20
463322701609.6406,4.720620528634029e-28,4.720620528634029e-28,4.0038167982748247e-20
512050775503.2157,5.500111174250194e-28,5.500111174250194e-28,4.6742991186302594e-20
565903625664.2365,6.411314458441362e-28,6.411314458441362e-28,5.459782857007954e-20
625420229517.6816,7.466187832475338e-28,7.466187832475338e-28,6.371666616849299e-20
691196249239.1388,8.702473034949136e-28,8.702473034949136e-28,7.44260722646535e-20
763889993342.063,1.0139152240900882e-27,1.0139152240900882e-27,8.690432350002217e-20
844229005250.6486,1.1818676055572529e-27,1.1818676055572529e-27,1.0152571818163137e-19
933017344798.9496,1.3769021734987613e-27,1.3769021734987613e-27,1.1855188820301192e-19
1031143635531.9579,1.6051461130519866e-27,1.6051461130519866e-27,1.385229980683966e-19
1139589958348.7156,1.8706084893160132e-27,1.8706084893160132e-27,1.6181360802946253e-19
1259441680498.0386,2.1805942519435307e-27,2.1805942519435307e-27,1.890787321054061e-19
1391898318298.7544,2.5402082095731324e-27,2.5402082095731324e-27,2.208025802640563e-19
1538285542302.1838,2.958846116514668e-27,2.958846116514668e-27,2.5783695686846266e-19
1700068445048.5994,3.443253397663247e-27,3.443253397663247e-27,3.008280165708786e-19
1878866204205.8003,4.0055862170485684e-27,4.0055862170485684e-27,3.50889864493335e-19
2076468287843.431,4.654832441595966e-27,4.654832441595966e-27,4.0889046123924957e-19
2294852364030.894,5.4064442084088616e-27,5.4064442084088616e-27,4.762652769079262e-19
2536204094004.0923,6.272580874243753e-27,6.272580874243753e-27,5.54194233655807e-19
2802939006997.718,7.273585407821249e-27,7.273585407821249e-27,6.445846955737877e-19
3097726675673.7134,8.426387696363653e-27,8.426387696363653e-27,7.490777750797511e-19
3423517434101.7407,9.757071216262225e-27,9.757071216262225e-27,8.701509686554898e-19
3783571905694.2085,1.1284790311748232e-26,1.1284790311748232e-26,1.0097271530644597e-18
4181493636621.294,1.303867893982025e-26,1.303867893982025e-26,1.1706766049081909e-18
4621265161312.232,1.5042002892700495e-26,1.5042002892700495e-26,1.3553899017638034e-18
5107287860998.448,1.7329350905792033e-26,1.7329350905792033e-26,1.5673775079158223e-18
5644426014216.265,1.9927587211130347e-26,1.9927587211130347e-26,1.8094983170041123e-18
6238055480141.461,2.2877034766332397e-26,2.2877034766332397e-26,2.0859958637158842e-18
6894117501994.761,2.620812303518236e-26,2.620812303518236e-26,2.4002458340484742e-18
7619178169000.937,2.9968354883779415e-26,2.9968354883779415e-26,2.7574332668127255e-18
8420494132016.702,3.4192560668129044e-26,3.4192560668129044e-26,3.1615780392014876e-18
9306085230531.498,3.893736580124392e-26,3.893736580124392e-26,3.6190814623096296e-18
10284814757916.727,4.42418140571638e-26,4.42418140571638e-26,4.1346588334499125e-18
11366478168244.793,5.017326596581488e-26,5.017326596581488e-26,4.716207109538373e-18
12561901112485.9,5.67706158407176e-26,5.67706158407176e-26,5.368851796820997e-18
13883047785261.549,6.410719217876613e-26,6.410719217876613e-26,6.10178558187914e-18
15343140666525.588,7.222027127603096e-26,7.222027127603096e-26,6.9204826671648755e-18
16956792856587.896,8.119886163326553e-26,8.119886163326553e-26,7.836441002198171e-18
18740154328933.824,9.108024233247438e-26,9.108024233247438e-26,8.855642941643622e-18
20711073564587.105,1.0197650850821193e-25,1.0197650850821193e-25,9.992757780691382e-18
22889276185707.004,1.1392619711281132e-25,1.1392619711281132e-25,1.1254347645426338e-17
25296562376244.9,1.2707788904512403e-25,1.2707788904512403e-25,1.2659645840431266e-17
27957025065512.453,1.4147402699608157e-25,1.4147402699608157e-25,1.421587469819381e-17
30897291058316.28,1.57317450899927e-25,1.57317450899927e-25,1.5948616661102047e-17
34146787524969.887,1.7465542227158691e-25,1.7465542227158691e-25,1.7865525072526343e-17
37738036518305.02,1.937832684820577e-25,1.937832684820577e-25,2.000200104863452e-17
41706980465307.55,2.1476650899506627e-25,2.1476650899506627e-25,2.2366650517592174e-17
46093341891007.02,2.3800197027339454e-25,2.3800197027339454e-25,2.500582543990037e-17
50941020974858.92,2.635383101132002e-25,2.635383101132002e-25,2.79253012079862e-17
56298534918495.64,2.9189284661460736e-25,2.9189284661460736e-25,3.118433099898364e-17
62219503522187.7,3.2305631078072343e-25,3.2305631078072343e-25,3.478105885902838e-17
68763185829827.28,3.576806848199115e-25,3.576806848199115e-25,3.878921115822023e-17
75995073213356.55,3.9562489442632973e-25,3.9562489442632973e-25,4.319113032457764e-17
83987544832431.28,4.376740033365507e-25,4.376740033365507e-25,4.8075347352596794e-17
92820592029377.67,4.834407851588015e-25,4.834407851588015e-25,5.339604866614525e-17
102582618909432.6,5.338432909845887e-25,5.338432909845887e-25,5.925711996986225e-17
113371327118741.88,5.88110706321975e-25,5.88110706321975e-25,6.556927544736392e-17
125294693675274.48,6.473130084696063e-25,6.473130084696063e-25,7.245408698931205e-17
138472051639110.1,7.101215841239714e-25,7.101215841239714e-25,7.975929699667984e-17
153035284437813.75,7.777921454322819e-25,7.777921454322819e-25,8.762820488795082e-17
169130145800106.7,8.482352910278243e-25,8.482352910278243e-25,9.582256939615979e-17
186917718508172.0,9.229641652379349e-25,9.229641652379349e-25,1.0451545467698547e-16
206576026568281.84,9.989113741995693e-25,9.989113741995693e-25,1.13357555811831e-16
228301816934887.34,1.0779710421774462e-24,1.0779710421774462e-24,1.2256546693342185e-16
252312528620267.78,1.1558841359225289e-24,1.1558841359225289e-24,1.3165371920726734e-16
278848468897249.88,1.2351171761955291e-24,1.2351171761955291e-24,1.4090394244323543e-16
308175218375162.25,1.3100437972368087e-24,1.3100437972368087e-24,1.4967316348077627e-16
340586289019841.06,1.3839719864269345e-24,1.3839719864269345e-24,1.58338694406717e-16
376406061720035.5,1.4498102888719519e-24,1.4498102888719519e-24,1.6608701582351399e-16
415993032800370.4,1.512041546444954e-24,1.512041546444954e-24,1.7342991666118867e-16
459743401973058.94,1.5621283742335078e-24,1.5621283742335078e-24,1.7938313955665058e-16
508095037637786.94,1.606080088112599e-24,1.606080088112599e-24,1.8463519869180344e-16
561531859215833.44,1.6340805774127022e-24,1.6340805774127022e-24,1.8804751549342285e-16
620588680378287.8,1.6539522436316242e-24,1.6539522436316242e-24,1.9052187923049806e-16
685856561641026.8,1.6549317884192055e-24,1.6549317884192055e-24,1.908006160801214e-16
757988725897021.6,1.6467660105028217e-24,1.6467660105028217e-24,1.9001682910551975e-16
837707096090601.5,1.618236216485064e-24,1.618236216485064e-24,1.86847831374638e-16
925809520464934.4,1.5808329756095023e-24,1.5808329756095023e-24,1.8264333863618974e-16
1023177757695406.2,1.5234825838085812e-24,1.5234825838085812e-24,1.7608403837497154e-16
1130786301826814.2,1.4588789401852461e-24,1.4588789401852461e-24,1.6867891849055655e-16
1249712135337308.5,1.3767954489916104e-24,1.3767954489916104e-24,1.5919262642731626e-16
1381145507941010.8,1.2902983753033109e-24,1.2902983753033109e-24,1.4919700098689594e-16
1526401849007223.0,1.190645677271137e-24,1.190645677271137e-24,1.376169025954895e-16
1686934932819678.2,1.0902039082312404e-24,1.0902039082312404e-24,1.259581604981063e-16
1864351428438204.0,9.821362465966642e-25,9.821362465966642e-25,1.1336093356550078e-16
2060426979782697.8,8.770527561477442e-25,8.770527561477442e-25,1.01132980193204e-16
2277123976874277.5,7.701204148274849e-25,7.701204148274849e-25,8.865009297194002e-17
2516611196094214.0,6.694178384425515e-25,6.694178384425515e-25,7.692095867851206e-17
2781285506026895.0,5.717923662415369e-25,5.717923662415369e-25,6.553064772889563e-17
3073795856126234.5,4.824615350666007e-25,4.824615350666007e-25,5.5143574582883286e-17
3397069788292156.5,3.993796627722059e-25,3.993796627722059e-25,4.549442474795815e-17
3754342736693887.5,3.2543065470135576e-25,3.2543065470135576e-25,3.6951152476739854e-17
4149190409082621.5,2.5957125299028693e-25,2.5957125299028693e-25,2.936769051872944e-17
4585564573676511.0,2.0294469873823222e-25,2.0294469873823222e-25,2.2886927909895494e-17
5067832609785234.0,1.5496895118767664e-25,1.5496895118767664e-25,1.7416853906803944e-17
5600821218010060.0,1.1555044207752399e-25,1.1555044207752399e-25,1.2946545192544282e-17
6189864727485743.0,8.386971699793852e-26,8.386971699793852e-26,9.368620358945291e-18
6840858483639484.0,5.915675687057351e-26,5.915675687057351e-26,6.591189472821562e-18
7560317850789430.0,4.0418018260208154e-26,4.0418018260208154e-26,4.494063313056683e-18
8355443420100658.0,2.6705369422345774e-26,2.6705369422345774e-26,2.964536124051739e-18
9234193075521786.0,1.701990761770168e-26,1.701990761770168e-26,1.8870253758940307e-18
1.0205361638962196e+16,1.0467025705101666e-26,1.0467025705101666e-26,1.158373258861157e-18
1.1278668891825842e+16,6.1927247357459365e-27,6.1927247357459365e-27,6.837160276431302e-19
1.2464856853850408e+16,3.526884327248738e-27,3.526884327248738e-27,3.877493184686115e-19
1.377579729285138e+16,1.9259777403718492e-27,1.9259777403718492e-27,2.1052054451204643e-19
1.5224610541364604e+16,1.00609715321324e-27,1.00609715321324e-27,1.0909960277983215e-19
1.6825796809344096e+16,5.009369089926087e-28,5.009369089926087e-28,5.3789871334384507e-20
1.859538130713711e+16,2.368417906920694e-28,2.368417906920694e-28,2.513329650230699e-20
2.055107463117545e+16,1.062387446052709e-28,1.062387446052709e-28,1.111891590977046e-20
2.271245001757731e+16,4.5027491524329145e-29,4.5027491524329145e-29,4.639474240790787e-21
2.5101139237673212e+16,1.816894609772411e-29,1.816894609772411e-29,1.8372235085889988e-21
2.774104909604396e+16,6.926364196024717e-30,6.926364196024717e-30,6.862041339706119e-22
3.0658600697856508e+16,2.5238477116681242e-30,2.5238477116681242e-30,2.442218734169812e-22
3.3882993880164756e+16,8.671742146889808e-31,8.671742146889808e-31,8.192132564038068e-23
3.744649945369322e+16,2.804117182282224e-31,2.804117182282224e-31,2.586418074826469e-23
4.138478217995743e+16,8.404298611553286e-32,8.404298611553286e-32,7.580839854590573e-24
4.573725771618424e+16,2.3025508504703755e-32,2.3025508504703755e-32,2.0356930555110622e-24
5.0547487100457816e+16,5.667244076462045e-33,5.667244076462045e-33,4.923709706897357e-25
5.5863612725229896e+16,1.2320186873898285e-33,1.2320186873898285e-33,1.0545024879455232e-25
6.173884016256473e+16,2.3063545163339693e-34,2.3063545163339693e-34,1.9501733063452507e-26
6.823197066338743e+16,3.6715256900812865e-35,3.6715256900812865e-35,3.0735029273332343e-27
7.540798966016638e+16,4.824829809120449e-36,4.824829809120449e-36,4.007741744102761e-28
8.333871716296514e+16,5.174043290466589e-37,5.174043290466589e-37,4.271640121284866e-29
9.210352655824104e+16,4.408438518914067e-38,4.408438518914067e-38,3.623081909595109e-30
1.0179013900437584e+17,2.9151725902243047e-39,2.9151725902243047e-39,2.387993957512349e-31
1.12495501374514e+17,1.453685985423634e-40,1.453685985423634e-40,1.1881856349140758e-32
1.2432675653345165e+17,5.2737272064443485e-42,5.2737272064443485e-42,4.3047997337082895e-34
1.3740231565944245e+17,1.3452787360507361e-43,1.3452787360507361e-43,1.097428819474009e-35
1.5185304334306618e+17,2.3113962685490147e-45,2.3113962685490147e-45,1.885374149560572e-37
1.6782356732403722e+17,2.5682707329684824e-47,2.5682707329684824e-47,2.0956672600927707e-39
1.8547372597423674e+17,1.754770119448172e-49,1.754770119448172e-49,1.4328536097121026e-41
2.0498016801385786e+17,7.015602710088029e-52,7.015602710088029e-52,5.734451205934299e-44
2.265381204711761e+17,1.5459441395401045e-54,1.5459441395401045e-54,1.2652105257022782e-46
2.5036334258026173e+17,1.7669025441579944e-57,1.7669025441579944e-57,1.4482633454001377e-49
2.7669428517191514e+17,9.750636439078596e-61,9.750636439078596e-61,8.005908371655713e-53
3.0579447716973094e+17,2.4115566091011975e-64,2.4115566091011975e-64,1.9839951719844724e-56
3.379551630761335e+17,2.4520149441399278e-68,2.4520149441399278e-68,2.021642521622802e-60
3.734982178452561e+17,9.354194550013654e-73,9.354194550013654e-73,7.731466420939195e-65
4.127793683156606e+17,1.2058598156079716e-77,1.2058598156079716e-77,9.993199942137594e-70
4.561917534441035e+17,4.6954953026715604e-83,4.6954953026715604e-83,3.903008599108322e-75
5.0416985897236006e+17,4.862630914990786e-89,4.862630914990786e-89,4.0549631765244327e-81
5.571938659065518e+17,1.1672234766506444e-95,1.1672234766506444e-95,9.769017059889536e-88
6.15794456330064e+17,5.561156514753454e-103,5.561156514753454e-103,4.672392480154977e-95
6.805581246481921e+17,4.444093263417296e-111,4.444093263417296e-111,3.750116359718798e-103
7.521330474212819e+17,4.930149659340018e-120,4.930149659340018e-120,4.17937509280696e-112
8.31235570533614e+17,6.1790832178206995e-130,6.1790832178206995e-130,5.265015476256502e-122
9.186573786237669e+17,6.946186207904401e-141,6.946186207904401e-141,5.950452820766201e-133
1.0152734185305976e+18,5.443865992047708e-153,5.443865992047708e-153,4.691308887236497e-145
1.1220506560552635e+18,2.244285718219956e-166,2.244285718219956e-166,1.9460134638359415e-158
1.2400577536799757e+18,3.576773736202068e-181,3.576773736202068e-181,3.122543004869136e-173
1.3704757661013258e+18,1.5624794551984905e-197,1.5624794551984905e-197,1.3736118032840053e-189
1.5146099606226312e+18,1.2839639024082418e-215,1.2839639024082418e-215,1.137382419013015e-207
1.67390288070783e+18,1.3043224378715019e-235,1.3043224378715019e-235,1.164397098445724e-227
1.8499487834413466e+18,1.0339825105068089e-257,1.0339825105068089e-257,9.307943901533285e-250
2.044509595388796e+18,3.831078986102211e-282,3.831078986102211e-282,3.477833291809149e-274
2.25953254655031e+18,3.781529620009263e-309,3.781529620009263e-309,3.463709355914602e-301
2.4971696588928154e+18,0.0,0.0,0.0
2.759799284509219e+18,0.0,0.0,0.0
3.050049908965573e+18,0.0,0.0,0.0
3.3708264580680207e+18,0.0,0.0,0.0
3.725339371336723e+18,0.0,0.0,0.0
4.117136733163568e+18,0.0,0.0,0.0
4.550139783233344e+18,0.0,0.0,0.0
5.02868216160853e+18,0.0,0.0,0.0
5.557553281255519e+18,0.0,0.0,0.0
6.142046262099498e+18,0.0,0.0,0.0
6.788010906347612e+18,0.0,0.0,0.0
