Energy,Neutrino Flux Best Fit,Neutrino Flux Min,Neutrino Flux Max
9733333333.333334,3.988127516315899e-24,2.9352144746370044e-24,4.658271078831324e-24
10756996935.936306,4.870809944106422e-24,3.5848560629914236e-24,5.6892768181737866e-24
11888320179.425653,5.948804716928145e-24,4.378243876370217e-24,6.94841541937661e-24
13138625727.0731,7.265308606892073e-24,5.34716958712296e-24,8.486142817251018e-24
14520427057.041698,8.873063626658961e-24,6.530449769599977e-24,1.0364064386610764e-23
16047553701.481249,1.0836462613258398e-23,7.97547546354857e-24,1.2657394452687283e-23
17735289657.13429,1.3234117692451717e-23,9.740102359946131e-24,1.5457956511747374e-23
19600526352.71264,1.6161992676406662e-23,1.1894955960324653e-23,1.8877842216567434e-23
21661931703.993355,1.9737222193853013e-23,1.4526242055869904e-23,2.305387259136929e-23
23940136948.594315,2.4102766637099156e-23,1.7739172203984502e-23,2.815303565638878e-23
26457943130.33471,2.94330837185649e-23,2.1662137196489655e-23,3.4379111698080404e-23
29240549299.74529,3.5941035589179046e-23,2.6451789569339895e-23,4.198074202080614e-23
32315804714.63574,4.388629626527671e-23,3.229922986554994e-23,5.126125054541029e-23
35714487564.82732,5.358557888267389e-23,3.9437531613996684e-23,6.259059165348545e-23
39470613010.62151,6.542506754555528e-23,4.8150887922367806e-23,7.641987397194835e-23
43621773617.95716,7.987551590109209e-23,5.87857193968106e-23,9.3299000273872e-23
48209515597.445786,9.751055050475495e-23,7.176413867712368e-23,1.1389805266080894e-22
53279754612.811424,1.1902867684461522e-22,8.760013575852443e-23,1.390330067022074e-22
58883235320.28602,1.4528038394741152e-22,1.0691951562757234e-22,1.69697401067859e-22
65076039238.1849,1.7730040389824662e-22,1.304836204594625e-22,2.0710003723039183e-22
71920146029.59167,2.163470502360811e-22,1.5921825698090104e-22,2.5271095211716334e-22
79484053815.65848,2.639490420069523e-22,1.942481179947553e-22,3.083161487489444e-22
87843464727.82545,3.2196235523825167e-22,2.36938572505445e-22,3.7608405017725343e-22
97082042560.19666,3.92637509573102e-22,2.8894510798192104e-22,4.586441687496727e-22
107292250104.91162,4.786948713531311e-22,3.5226859579310186e-22,5.591752120926006e-22
118576274550.84715,5.833835096820507e-22,4.292981328436178e-22,6.814742824033143e-22
131047050207.34981,7.105795018866357e-22,5.228830471188138e-22,8.300720304794957e-22
144829388788.7623,8.64901357149522e-22,6.36417407661861e-22,1.0103678942582049e-21
160061228572.01135,1.0518442494398006e-21,7.739382161151462e-22,1.228787461532851e-21
176895014929.24588,1.2779624824175505e-21,9.402591621673522e-22,1.4929961066398441e-21
195499226052.36,1.551057107336118e-21,1.1411077398999115e-21,1.8121190573056837e-21
216060059139.36526,1.8804414847926094e-21,1.3833198824990895e-21,2.1970523573300115e-21
238783293918.53104,2.2772102453130097e-21,1.6750364430562091e-21,2.6607784236242356e-21
263896352161.0702,2.754580608180904e-21,2.0259527748731703e-21,3.2187662683471444e-21
291650573794.66437,3.3283013201585677e-21,2.4476176894300756e-21,3.8894510749163375e-21
322323732397.93854,4.017161336452751e-21,2.9538055404258046e-21,4.69483054592412e-21
356222815251.79913,4.843098743039856e-21,3.56058917911613e-21,5.660598999533545e-21
393687095771.3227,5.830068724652991e-21,4.285487077080023e-21,6.814843906080766e-21
435091529068.1282,7.011794110638222e-21,5.153223536885366e-21,8.19704551890917e-21
480850504627.1605,8.421777198968539e-21,6.1882769525388955e-21,9.846506174606502e-21
531421993655.93726,1.010761302585987e-20,7.425518712250469e-21,1.1818969093512026e-20
587312132614.3235,1.211612433899869e-20,8.899128867376314e-21,1.416939259834535e-20
649080288798.3383,1.4513890894730198e-20,1.0657848356881988e-20,1.6975792859024498e-20
717344658676.0657,1.736588571850712e-20,1.2749057138303017e-20,2.0314479387443108e-20
792788455005.69,2.0766564886624873e-20,1.524186443467437e-20,2.4296170244977904e-20
876166744658.4124,2.4805025545697666e-20,1.8201157277770198e-20,2.902558908864857e-20
968314005581.4896,2.9614202855737505e-20,2.1724130805305888e-20,3.465862211031973e-20
1070152478534.0023,3.5316921524060525e-20,2.590012851458253e-20,4.1339737326738545e-20
1182701397182.3538,4.209356051622495e-20,3.086085040258529e-20,4.928063072648919e-20
1307087188933.3726,5.011168841432277e-20,3.6728011639258995e-20,5.867856572494367e-20
1444554748598.4124,5.96242055837033e-20,4.368612576569608e-20,6.983048079784753e-20
1596479897719.0447,7.085800196570203e-20,5.189972649358549e-20,8.300373048881795e-20
1764383154251.472,8.41568996037461e-20,6.161931673236876e-20,9.860233723599725e-20
1949944950421.3074,9.982250299112531e-20,7.306313575942719e-20,1.1698214793966018e-19
2155022451054.0886,1.1832478472940855e-19,8.657316484511329e-20,1.3869583599019535e-19
2381668140705.0786,1.4006340372147906e-19,1.0243792506965723e-19,1.6421557571103314e-19
2632150365614.5537,1.6567843134432174e-19,1.2112254908821318e-19,1.9429466516765283e-19
2908976036079.387,1.9569638218015819e-19,1.4300617063253014e-19,2.2955607284254144e-19
3214915716453.916,2.3098384032034657e-19,1.6871760328581377e-19,2.710205588976172e-19
3553031353889.2017,2.722313162842891e-19,1.9875271434108023e-19,3.195064239280285e-19
3926706923329.2886,3.2061252624645167e-19,2.3396196929973787e-19,3.763973562527263e-19
4339682295469.834,3.7703153323740646e-19,2.74992778745185e-19,4.427664573049666e-19
4796090666641.028,4.43069247118201e-19,3.229889121318411e-19,5.204791173443231e-19
5300499925225.714,5.198769282589824e-19,3.787715548447769e-19,6.109049492629287e-19
5857958368621.601,6.095498633429242e-19,4.438536609371628e-19,7.165191026894731e-19
6474045228298.455,7.1355847057068645e-19,5.192800361428941e-19,8.390747237070504e-19
7154926508621.873,8.34687025592983e-19,6.070574854635323e-19,9.818643395309151e-19
7907416698297.422,9.74799249305699e-19,7.0850475150018485e-19,1.1471152872267767e-18
8739046972064.072,1.137575988993521e-18,8.262698010107919e-19,1.3391851461923065e-18
9658140565222.256,1.3253732162415142e-18,9.620127072156347e-19,1.5608961942073331e-18
10673896075370.33,1.5430369440934427e-18,1.119212842719643e-18,1.8179918786567433e-18
11796479525061.088,1.79354991547836e-18,1.299963873165034e-18,2.114052970017061e-18
13037126106772.336,2.0832578807424566e-18,1.5088127091101274e-18,2.456609207536607e-18
14408252628489.586,2.415938967493719e-18,1.7484024631293206e-18,2.8502046563266972e-18
15923581785293.691,2.7998426994924354e-18,2.0246313104344873e-18,3.3046402753218385e-18
17598279500705.684,3.2397200900249032e-18,2.3408124612751686e-18,3.82564026899208e-18
19449106712346.758,3.746129015315915e-18,2.704474325984569e-18,4.42576728897208e-18
21494587121035.504,4.325036940000062e-18,3.1197685138741703e-18,5.112220619174523e-18
23755192582211.81,4.989920190318212e-18,3.596279454959601e-18,5.901059365731367e-18
26253547995146.832,5.748313906399961e-18,4.139244841651422e-18,6.801378438305906e-18
29014657740539.492,6.617313908461004e-18,4.7607912618392655e-18,7.833580664858102e-18
32066155932762.715,7.606485987859367e-18,5.467574190531318e-18,9.009205966458129e-18
35438582991368.29,8.737467423767096e-18,6.274904724168288e-18,1.0354112284457013e-17
39165691299870.516,1.0022529499139122e-17,7.191349308347911e-18,1.1883076117987335e-17
43284783010945.29,1.1489100827275211e-17,8.236281221881955e-18,1.3628910646759098e-17
47837083378911.58,1.3153162509261236e-17,9.420925033147055e-18,1.5610794436357242e-17
52868153355932.99,1.5049825599262285e-17,1.0770062720359889e-17,1.7870747970378344e-17
58428345581340.68,1.7200504257881315e-17,1.2298875881916474e-17,2.0434335493708285e-17
64573308327771.46,1.965062249574277e-17,1.4039444944272068e-17,2.335590143969031e-17
71364542447785.03,2.2429463460007197e-17,1.6012766327917167e-17,2.6670179050515973e-17
78870016895067.08,2.55967825465456e-17,1.826113793052762e-17,3.044856705387941e-17
87164848980563.08,2.919370016236002e-17,2.081441545600099e-17,3.473948474916367e-17
96332056171774.23,3.330045159645897e-17,2.3729620647948213e-17,3.963858478014267e-17
106463386959474.53,3.7976245347955286e-17,2.7050282672760555e-17,4.521507008186186e-17
117660239107445.36,4.333113754651122e-17,3.085504024336543e-17,5.159974035080448e-17
130034674475375.58,4.9452191856938476e-17,3.5208631817950124e-17,5.88936593534029e-17
143710540571619.0,5.649356698775295e-17,4.022190645816513e-17,6.727937708663297e-17
158824710060683.72,6.45854384856794e-17,4.5992582463819634e-17,7.6907122233729e-17
175528450630864.3,7.394781819712108e-17,5.267990993109295e-17,8.803642651108185e-17
193988938932108.22,8.47773911587013e-17,6.043262118896783e-17,1.0089323711065942e-16
214390933736118.75,9.739239648587254e-17,6.948252125385024e-17,1.1585157006414626e-16
236938625064241.97,1.120910395625053e-16,8.005630555662758e-17,1.3325285899090937e-16
261857677789829.9,1.2933774503944552e-16,9.249416193608572e-17,1.5364111491699136e-16
289397490168143.3,1.4958464774590878e-16,1.0714099539349417e-16,1.775328782553718e-16
319833689897915.06,1.7351276855651673e-16,1.2449800727601078e-16,2.0572362584554663e-16
353470892696000.6,2.0180556227584767e-16,1.4508758230407153e-16,2.38993196664051e-16
390645750993858.3,2.354631879579032e-16,1.6964858487374734e-16,2.7850718152037545e-16
431730323268233.06,2.755140205203453e-16,1.9896761131153339e-16,3.2543843010512874e-16
477135797727449.06,3.234259647651771e-16,2.341322339882177e-16,3.814946331216319e-16
527316607621201.2,3.807382742039912e-16,2.7631954274570503e-16,4.48431552192054e-16
582774979361258.8,4.49600978963146e-16,3.271259224828928e-16,5.287471659471112e-16
644065958972199.9,5.323054181029595e-16,3.883018653333126e-16,6.250567558846092e-16
711802967178578.4,6.319911503118835e-16,4.621820089953128e-16,7.41004601298588e-16
786663938725719.1,7.520491068183809e-16,5.513528845455124e-16,8.804648501722047e-16
869398107378507.8,8.970438241521532e-16,6.592122310305042e-16,1.0487325442368318e-15
960833504504735.5,1.0719574473730938e-15,7.895530560006211e-16,1.2515067238484178e-15
1061885246291342.0,1.2833816317799085e-15,9.472852800128584e-16,1.4964308810009732e-15
1173564692534787.2,1.5385623282133053e-15,1.1379139124571446e-15,1.7918045474187193e-15
1296989568669835.2,1.8469118423648976e-15,1.3684528885009957e-15,2.1485391009741393e-15
1433395152341379.8,2.218778071253514e-15,1.6467479269275333e-15,2.578502252005967e-15
1584146636478305.0,2.667331075709632e-15,1.982616003914682e-15,3.0969589447997496e-15
1750752792603179.8,3.2070723262472903e-15,2.387031121637854e-15,3.72056045543601e-15
1934881071124759.5,3.856073218204427e-15,2.8734673650925983e-15,4.470249211137847e-15
2138374289742142.2,4.633957265041481e-15,3.4567508421194202e-15,5.36858073791054e-15
2363269076983683.5,5.564343389131408e-15,4.15449504952675e-15,6.4429233236596965e-15
2611816255469845.0,6.671835249076477e-15,4.98526789333383e-15,7.721576599003993e-15
2886503368902512.5,7.983629282683455e-15,5.969345107441176e-15,9.236059659055213e-15
3190079578238439.0,9.521899736015076e-15,7.123474691328636e-15,1.1011864885753188e-14
3525583176216149.0,1.1300968714136934e-14,8.458261039891379e-15,1.3065660482174626e-14
3896371995610857.5,1.3302882332951316e-14,9.960355784366522e-15,1.537660389717959e-14
4306157015553493.0,1.546957710151929e-14,1.1586072348768832e-14,1.7877782746679715e-14
4759039502257151.0,1.7664721158834524e-14,1.3233280155655253e-14,2.041166443326925e-14
5259552055867807.0,1.9679906566294222e-14,1.4745551708359634e-14,2.273772004094201e-14
5812703974250082.0,2.1270903181165326e-14,1.593982708058188e-14,2.457383421282905e-14
6424031387723927.0,2.2152094014649378e-14,1.6601794105977845e-14,2.559030516864824e-14
7099652666517626.0,2.2208599519469078e-14,1.6645371601988624e-14,2.5654408944121093e-14
7846329655473516.0,2.1340606791609403e-14,1.5995605666137802e-14,2.465098323926164e-14
8671535348863843.0,1.9747595397305022e-14,1.4802130558778378e-14,2.2810339863777938e-14
9583528682629280.0,1.7593765714054852e-14,1.3188005207927045e-14,2.0322164949585992e-14
1.0591437192585702e+16,1.5177110380770295e-14,1.1376721270688579e-14,1.7530547745103266e-14
1.1705348365870494e+16,1.2749633010643492e-14,9.557211540253446e-15,1.4726538687238154e-14
1.2936410599904394e+16,1.03530984118185e-14,7.760812803982154e-15,1.1958350245561868e-14
1.4296944779299874e+16,8.327564554462126e-15,6.242514466479339e-15,9.618692449392058e-15
1.5800567587415674e+16,6.345547276537464e-15,4.756750852785105e-15,7.329380284526892e-15
1.7462327786700494e+16,4.9230621120674455e-15,3.690478112318278e-15,5.686300111162603e-15
1.929885683176567e+16,3.5461703279231968e-15,2.6583085978219517e-15,4.0959532505469615e-15
2.132853532257298e+16,2.665183297629191e-15,1.9979364413289748e-15,3.078343303073871e-15
2.3571676963656852e+16,1.8721009541094754e-15,1.4034169768049007e-15,2.162307505439835e-15
2.6050731870507228e+16,1.3434953482747639e-15,1.0071717238482274e-15,1.5517374261337465e-15
2.8790511257870996e+16,9.04991813618277e-16,6.784493489254574e-16,1.0452576705664102e-15
3.1818435758728544e+16,5.849974078519201e-16,4.3856227239815846e-16,6.756625388306783e-16
3.5164809859205092e+16,3.492821266700756e-16,2.618503361983425e-16,4.0341552251017904e-16
3.886312519605326e+16,1.8997701388191478e-16,1.4241994041503584e-16,2.1942274795592728e-16
4.295039575221101e+16,9.521741711398273e-17,7.137951111399767e-17,1.0997773386794325e-16
4.7467528305183416e+16,4.256513124471649e-17,3.1907065077217436e-17,4.916515046608966e-17
5.245973183582132e+16,1.872601127986643e-17,1.403643082581687e-17,2.1630270640341616e-17
5.7976969994997016e+16,7.895002591719272e-18,5.917556078585872e-18,9.119733006854314e-18
6.40744611566151e+16,3.839237588171694e-18,2.8777560373147715e-18,4.4346889217220326e-18
7.081323106165871e+16,1.9740367948446534e-18,1.4797923151347396e-18,2.2800838483235248e-18
7.826072358431629e+16,1.073365683202584e-18,8.047053350156923e-19,1.2396990893545133e-18
8.64914757329433e+16,5.454766104893201e-19,4.0897490495180783e-19,6.299778993324719e-19
9.558786364149469e+16,2.506189038204463e-19,1.8791225317212258e-19,2.8943441565283164e-19
1.0564092701756027e+17,9.962892910461053e-20,7.470317351595097e-20,1.1505730151910592e-19
1.1675128029835973e+17,3.410172694855827e-20,2.5570381685246605e-20,3.938225754506451e-20
1.2903011963384568e+17,9.683912469625585e-21,7.261303854515146e-21,1.1183385219728447e-20
1.4260033577514758e+17,2.3017741526829074e-21,1.7259437122703268e-21,2.6581839845838055e-21
1.5759774400651568e+17,4.373996175655639e-22,3.279732695249776e-22,5.051299552556501e-22
1.7417244343033146e+17,6.7068563145401e-23,5.0288757169362985e-23,7.745487688332111e-23
1.924903192093785e+17,7.926510935642688e-24,5.943153175958376e-24,9.154241407600758e-24
2.127347028013036e+17,7.196327577395447e-25,5.395263755386189e-25,8.311352741347924e-25
2.3510820680146627e+17,4.8480830016474615e-26,3.634134538893118e-26,5.599827211954864e-26
2.5983475275789606e+17,2.3787778614409506e-27,1.7824613927523256e-27,2.7482758084717336e-27
2.8716181225340227e+17,8.530140753890253e-29,6.385744697737374e-29,9.860896283911779e-29
3.173628836843598e+17,2.3223281290795032e-30,1.7343996589779852e-30,2.6885497902305963e-30
3.507402295245794e+17,5.924682610045894e-32,4.406359494149936e-32,6.876526089673196e-32
3.8762790146974195e+17,1.6628974354081794e-33,1.2325800311684113e-33,1.9340236277677915e-33
4.28395083739052e+17,4.5365875027875457e-35,3.35973477308821e-35,5.27901132121293e-35
4.7344978799498106e+17,9.417068056971514e-37,6.974389609234511e-37,1.0957968197308285e-36
5.2324293686113466e+17,1.3281408771796893e-38,9.837033654123882e-39,1.5453987380680477e-38
5.782728769074191e+17,1.186900877476931e-40,8.790487286836971e-41,1.381096189758604e-40
6.39090366270017e+17,6.4052344032001855e-43,4.743094148635716e-43,7.453976621818784e-43
7.063040868239375e+17,1.961641756112202e-45,1.452250310078915e-45,2.2831598812698262e-45
7.805867360757915e+17,3.225190237105434e-48,2.386943385819855e-48,3.754514558619676e-48
8.626817597465568e+17,2.646226629039776e-51,1.957768392671666e-51,3.081185461405006e-51
9.534107924262189e+17,1.0121108193772498e-54,7.484941610197411e-55,1.1787567012968662e-54
1.0536818807689128e+18,1.6542471289620713e-58,1.2228548749294642e-58,1.927120568150171e-58
1.164498571529056e+18,1.0622165234511538e-62,7.848401745709968e-63,1.2377881053034069e-62
1.2869699553945444e+18,2.41426928410582e-67,1.7829372265696858e-67,2.8141715383917742e-67
1.4223217671391657e+18,1.750596737109424e-72,1.2920969818816942e-72,2.0412517848418713e-72
1.5719086531881715e+18,3.5714672869453463e-78,2.6345186604904163e-78,4.165916438677931e-78
1.7372277293750226e+18,1.8033117672257926e-84,1.3293611335707005e-84,2.1042862230190295e-84
1.9199335645798692e+18,1.9359720742842373e-91,1.4261779688996896e-91,2.260019145337977e-91
2.121854740210988e+18,3.7733891564140795e-99,2.777636079468874e-99,4.4070047063348545e-99
2.3450121512621373e+18,1.1108709925129947e-107,8.170701364058179e-108,1.2980291682149624e-107
2.5916392321089295e+18,4.0677841003476404e-117,2.989277873155459e-117,4.7556608517427866e-117
2.8642043094706857e+18,1.4819714766000607e-127,1.088032407274553e-127,1.7335489440921983e-127
3.165435306253949e+18,4.232327372903766e-139,3.104052998297933e-139,4.9538825609975685e-139
3.49834704352175e+18,7.222799439548859e-152,5.291542783077816e-152,8.459686983247313e-152
3.8662714138361523e+18,5.498917226326471e-166,4.023724334097545e-166,6.445238633578106e-166
4.2728907279589386e+18,1.3422949345720387e-181,9.809580836877078e-182,1.5744750461958728e-181
4.722274568655292e+18,7.343685546837997e-199,5.359299812921249e-199,8.621102629228805e-199
5.21892052044606e+18,6.021937485291328e-218,4.388311099243549e-218,7.075538721344102e-218
5.767799182945217e+18,4.77483518175181e-239,3.4739128418324665e-239,5.615587564093804e-239
6.374403918291523e+18,2.2416427729762163e-262,1.6281736335528413e-262,2.63894776490076e-262
7.044805830563256e+18,3.644763530578813e-288,2.6424194573218477e-288,4.2954093111108785e-288
7.785714527428253e+18,1.1838914e-316,8.086324e-317,1.3840623e-316
8.604545272152801e+18,0.0,0.0,0.0
9.509493198048598e+18,0.0,0.0,0.0
1.0509615328121475e+19,0.0,0.0,0.0
1.1614921220801925e+19,0.0,0.0,0.0
1.2836473148969957e+19,0.0,0.0,0.0
1.4186496814900548e+19,0.0,0.0,0.0
1.5678503709200912e+19,0.0,0.0,0.0
1.732742633834998e+19,0.0,0.0,0.0
1.9149767674242433e+19,0.0,0.0,0.0
2.1163766321477825e+19,0.0,0.0,0.0
2.338957905544615e+19,0.0,0.0,0.0
2.58494825581104e+19,0.0,0.0,0.0
2.856809637052725e+19,0.0,0.0,0.0
3.157262929348922e+19,0.0,0.0,0.0
3.4893151702347497e+19,0.0,0.0,0.0
3.8562896501436285e+19,0.0,0.0,0.0
4.261859173014857e+19,0.0,0.0,0.0
4.71008281494994e+19,0.0,0.0,0.0
5.2054465488105636e+19,0.0,0.0,0.0
5.75290814134267e+19,0.0,0.0,0.0
6.357946772172555e+19,0.0,0.0,0.0
7.026617871278053e+19,0.0,0.0,0.0
7.765613723767102e+19,0.0,0.0,0.0
8.58233044851655e+19,0.0,0.0,0.0
9.4849420210156e+19,0.0,0.0,0.0
1.0482482081260113e+20,0.0,0.0,0.0
1.158493434545778e+20,0.0,0.0,0.0
1.280333252641565e+20,0.0,0.0,0.0
1.4149870762646605e+20,0.0,0.0,0.0
1.563802566140588e+20,0.0,0.0,0.0
1.72826911771065e+20,0.0,0.0,0.0
1.910032767502071e+20,0.0,0.0,0.0
2.1109126672148296e+20,0.0,0.0,0.0
2.3329192904033305e+20,0.0,0.0,0.0
2.5782745539714315e+20,0.0,0.0,0.0
2.849434055863692e+20,0.0,0.0,0.0
3.149111651514897e+20,0.0,0.0,0.0
3.48030661502743e+20,0.0,0.0,0.0
