Energy,Neutrino Flux Best Fit,Neutrino Flux Min,Neutrino Flux Max
16407185628.742516,9.008811782255194e-24,4.6788193734257935e-24,1.2713217302656314e-23
18132744404.35494,1.1002868891593475e-23,5.71444646275929e-24,1.5527239477235267e-23
20039781780.59201,1.3438215408785924e-23,6.979257442252113e-24,1.896401619181132e-23
22147384028.492508,1.6412474783080295e-23,8.523951996190033e-24,2.3161317189890375e-23
24476644739.743,2.004485242340101e-23,1.0410437711180132e-23,2.8287370280306093e-23
27050875938.433243,2.4480900641011912e-23,1.2714304404943201e-23,3.4547586325721724e-23
29895841395.62871,2.989833288248614e-23,1.5527843245302358e-23,4.219276529394934e-23
33040014481.850937,3.651411710939643e-23,1.8963729964064652e-23,5.1529107878018006e-23
36514863138.13989,4.4593127994488475e-23,2.315951730935028e-23,6.293042754564788e-23
40355164817.78469,5.445869797223309e-23,2.828311318634459e-23,7.685304315401906e-23
44599354550.765175,6.650548023414383e-23,3.4539458810225223e-23,9.385393547795212e-23
49289909614.45046,8.121512500834064e-23,4.217866693199446e-23,1.146128757102367e-22
54473774660.46792,9.917537685173963e-23,5.150593531396067e-23,1.399593843783301e-22
60202831552.55527,1.21103328631414e-22,6.289361688444036e-23,1.709055600403436e-22
66534418617.691086,1.478737213123488e-22,7.679590740792032e-23,2.0868603417226132e-22
73531904507.3431,1.8055336207259358e-22,9.376670635296379e-23,2.548065682121966e-22
81265322412.23123,2.204429258005628e-22,1.144813056112776e-22,3.11103082279964e-22
89812070978.03911,2.6912741522773722e-22,1.3976256092674017e-22,3.7981292868331647e-22
99257688937.07469,3.2853816843621595e-22,1.706130601896663e-22,4.636624617491932e-22
109696711208.6539,4.0102715053974463e-22,2.082536406855439e-22,5.659719990030754e-22
121233615036.3472,4.894575821270308e-22,2.541703754931972e-22,6.907838647968697e-22
133983865631.3495,5.973125270114518e-22,3.1017083728957945e-22,8.430158683339633e-22
148075071787.1227,7.288269412212604e-22,3.7845250971343073e-22,1.0286479575208385e-21
163648263031.0919,8.891452450717687e-22,4.616843625038758e-22,1.254945057025807e-21
180859301095.5569,1.08450215138078e-21,5.631002511480482e-22,1.530713184041169e-21
199880439834.2965,1.3223874752232546e-21,6.865829399790866e-22,1.866534869383217e-21
220902049197.03375,1.6117918488852734e-21,8.367905772705501e-22,2.2751179692489356e-21
244134520515.8777,1.963498062809812e-21,1.01930655707976e-21,2.771709423792246e-21
269810372172.49063,2.390425875750817e-21,1.2408166200777033e-21,3.3745854306157476e-21
298186576720.2036,2.9080830828670253e-21,1.5093413732273548e-21,4.1056911486803706e-21
329547132751.70184,3.535057288576621e-21,1.834488526523898e-21,4.991340417044334e-21
364205907252.3957,4.2936766090877254e-21,2.227793407080761e-21,6.0631528874894025e-21
402509776886.70435,5.210722832099026e-21,2.703084558115458e-21,7.359069086747903e-21
444842099656.30316,6.318322933405726e-21,3.276941522621227e-21,8.924617983200217e-21
491626551675.8554,7.655022986296568e-21,3.969246098091464e-21,1.0814444217298238e-20
543331367465.96967,9.267113826190311e-21,4.803863519987356e-21,1.3094192093665016e-20
600474026201.6628,1.120938330485253e-20,5.809009614699788e-21,1.5841609699701623e-20
663626430817.8723,1.3543897413608599e-20,7.016552872160436e-21,1.9144946102131766e-20
733420631806.2533,1.635391320385058e-20,8.469426755009058e-21,2.312224820672848e-20
810555152988.9385,1.9728004129545358e-20,1.0213051963908778e-20,2.7899560391264026e-20
895801982579.7318,2.3785600464974117e-20,1.2308950164555417e-20,3.3646336302604605e-20
990014299501.628,2.8653123026135203e-20,1.4821872580760047e-20,4.054261940945747e-20
1094135012288.2332,3.450093572111551e-20,1.7839469062474202e-20,4.8830327650905243e-20
1209206196029.2961,4.150879495892312e-20,2.1453689567637102e-20,5.876567819033908e-20
1336379521808.4595,4.9922049895890583e-20,2.579066663138815e-20,7.06972423664507e-20
1476927783014.5496,5.999468490927007e-20,3.098012343953978e-20,8.498739342385901e-20
1632257633885.6216,7.207830353623959e-20,3.720265427801503e-20,1.0213595451754612e-19
1803923667777.3562,8.653323257204827e-20,4.4642078250896415e-20,1.2265741873328808e-19
1993643976055.891,1.0385218829632544e-19,5.355100416499916e-20,1.472530493840723e-19
2203317343333.673,1.2454387406158714e-19,6.418860581363103e-20,1.7664981180489268e-19
2435042251144.0713,1.4931345366677654e-19,7.69161413482097e-20,2.1185182449292567e-19
2691137880249.8867,1.788771491488488e-19,9.20980421994634e-20,2.538834558201968e-19
2974167321783.9185,2.1422667970692688e-19,1.102416348832408e-19,3.041581935679182e-19
3286963229526.525,2.5636276393914766e-19,1.3185534765086314e-19,3.641086813621273e-19
3632656170056.7236,3.066868599488474e-19,1.576553757010759e-19,4.357337384583415e-19
4014705954514.754,3.6659902117077966e-19,1.883522155956761e-19,5.210391823890744e-19
4436936265554.842,4.3807952103475985e-19,2.249570500672148e-19,6.228508235116153e-19
4903572926046.379,5.230883149098716e-19,2.684637523136259e-19,7.439780115563932e-19
5419286192529.569,6.244212100607213e-19,3.202991605341931e-19,8.884117149337874e-19
5989237496712.582,7.448270866153587e-19,3.818568912338173e-19,1.0600926724080344e-18
6619131102814.936,8.88264238185128e-19,4.551569527952738e-19,1.2646714705472928e-18
7315271197761.061,1.0586014583225813e-18,5.421616953234743e-19,1.5076925914481984e-18
8084624985601.931,1.261441895127477e-18,6.457314606398543e-19,1.7971530284349406e-18
8934892417635.01,1.5021987491218638e-18,7.686140035745018e-19,2.140806908551518e-18
9874583256104.822,1.7887640292032705e-18,9.148400128420125e-19,2.5499145103085216e-18
10913102242763.781,2.1287637243526973e-18,1.088287459731279e-18,3.035387016273986e-18
12060843224688.662,2.5333546392216695e-18,1.294660583733716e-18,3.6131318390037454e-18
13329293179395.621,3.013313270703505e-18,1.5394541795308608e-18,4.298541263904539e-18
14731147180372.135,3.584409433947094e-18,1.8307428234177824e-18,5.114078625285631e-18
16280435453639.354,4.261940033490153e-18,2.176354516591534e-18,6.081541635970988e-18
17992663796969.918,5.068200552301285e-18,2.5877264367924016e-18,7.232650669579123e-18
19884968767123.727,6.025007843634639e-18,3.0760734849079734e-18,8.598403133659474e-18
21976289188267.7,7.16388289188968e-18,3.6576017960698705e-18,1.022357891098435e-17
24287555698093.754,8.516046656983919e-18,4.3484442788422626e-18,1.2152385244119792e-17
26841900228675.69,1.0126056394248087e-17,5.171570281761166e-18,1.444801200643717e-17
29664887518620.438,1.2038625759780254e-17,6.1502171230175896e-18,1.7173532331916026e-17
32784770973564.59,1.4316599486995516e-17,7.316878533919103e-18,2.041789532658451e-17
36232775435754.21,1.7024112513723736e-17,8.705090292442498e-18,2.4271198654198982e-17
40043409692761.27,2.0250061001985648e-17,1.0360980251239567e-17,2.8858967171175926e-17
44254811853028.25,2.4086640611245688e-17,1.2333071156549186e-17,3.4310150850991326e-17
48909131044876.266,2.8659869276039186e-17,1.468702201455935e-17,4.080220615797849e-17
54052949259148.04,3.410251267218221e-17,1.7493180165355146e-17,4.8519972622298945e-17
59737747557429.12,4.059380154322689e-17,2.0845364450803923e-17,5.771505509173392e-17
66020421311815.195,4.832533830244166e-17,2.4845800079066377e-17,6.865293731818042e-17
72963849632919.83,5.755303397191507e-17,2.96291329700484e-17,8.169162387235817e-17
80637524685147.48,6.855406039925311e-17,3.5344274326090506e-17,9.721329767539568e-17
89118247187632.1,8.169549061912766e-17,4.218542703387874e-17,1.157295391615931e-16
98490895061648.02,9.737960168655939e-17,5.0370213154956455e-17,1.3779232779706388e-16
108849272917373.77,1.161352824650982e-16,6.018006996928106e-17,1.641358269823353e-16
120297050881960.64,1.385480408058252e-16,7.193388460525024e-17,1.9555956358243472e-16
132948802165009.3,1.6538325648938807e-16,8.604135229677572e-17,2.3312161675151047e-16
146931149745760.9,1.9749571602121366e-16,1.0297103246370992e-16,2.7798377349204376e-16
162384033658433.3,2.3599767636842766e-16,1.233218121248971e-16,3.316772934756346e-16
179462111559117.5,2.821406698164894e-16,1.4778389933828153e-16,3.9589566877522163e-16
198336306591584.12,3.3754703496501315e-16,1.77235842680759e-16,4.728633382553367e-16
219195518043554.1,4.0405399684588295e-16,2.1269651005499667e-16,5.650560935805028e-16
242248511914262.2,4.840356342660201e-16,2.5545854541913667e-16,6.75716450129736e-16
267726010314744.53,5.801953213621508e-16,3.0702866117835563e-16,8.084738329834709e-16
295883000612276.4,6.960170406609363e-16,3.693134087722044e-16,9.680693409952024e-16
327001287429646.8,8.354865581225397e-16,4.445439416482832e-16,1.1598365364946078e-15
361392313040541.4,1.003726948673432e-15,5.35536622409966e-16,1.390723824460109e-15
399400274388497.44,1.2066213501518059e-15,6.455969464048963e-16,1.6685816342779417e-15
441405567925601.2,1.4517128391881597e-15,7.788884940364696e-16,2.003610164645446e-15
487828596748039.1,1.7476909852286153e-15,9.40308456906784e-16,2.4073778428076353e-15
539133978131585.1,2.105668920112011e-15,1.1360125767693054e-15,2.8948734978391287e-15
595835193577459.8,2.5384819492754212e-15,1.3732517985203187e-15,3.4831534403540486e-15
658499727907783.4,3.0625019492748045e-15,1.661121747369651e-15,4.194250461676788e-15
727754748844409.0,3.6966773356926455e-15,2.0103458293906337e-15,5.053309929981704e-15
804293383914287.4,4.465109658304804e-15,2.4343468000751082e-15,6.092707717841382e-15
888881657502722.1,5.3957379912984816e-15,2.94895517389594e-15,7.349485727991419e-15
982366157482886.4,6.523985308158363e-15,3.573937503042939e-15,8.87115823797132e-15
1085682508151809.2,7.890927382978566e-15,4.3325839408117655e-15,1.0712154488127641e-14
1199864734272806.5,9.548438892582858e-15,5.253884919017345e-15,1.2941977329537114e-14
1326055609942870.0,1.1556737455692378e-14,6.3719927416321744e-15,1.564040510716471e-14
1465518095859924.0,1.3991598429470703e-14,7.729302496836898e-15,1.8908877244207486e-14
1619647979457986.5,1.6940939620615248e-14,9.375670579703004e-15,2.2863881082345515e-14
1789987844416953.2,2.0514805670247545e-14,1.1372714018299252e-14,2.7652643620433386e-14
1978242509358533.2,2.4840560409654384e-14,1.3792629194896717e-14,3.344396897514406e-14
2186296090244042.0,3.007650268280574e-14,1.672409795353091e-14,4.044955963065489e-14
2416230857240206.0,3.640493296277107e-14,2.0270396181573203e-14,4.891114202713307e-14
2670348074778866.5,4.405023622456361e-14,2.4557266144623288e-14,5.912873127848458e-14
2951191033384902.5,5.3268599213248335e-14,2.972974063987897e-14,7.144220747650142e-14
3261570503782611.0,6.43706669712564e-14,3.5961923382761136e-14,8.626687956453223e-14
3604592868033879.5,7.770408044539123e-14,4.3450491863998115e-14,1.0406419293317462e-13
3983691209253933.0,9.368325146721929e-14,5.242770351384689e-14,1.2538819081672698e-13
4402659671061054.5,1.1274979231240544e-13,6.31432874356397e-14,1.5082525601694662e-13
4865691430641180.0,1.353910499373712e-13,7.58702635579855e-14,1.8102714771556205e-13
5377420665474524.0,1.620375250689493e-13,9.085229138119322e-14,2.165651078801722e-13
5942968933741437.0,1.9303129124826615e-13,1.0828040493014684e-13,2.578976994589269e-13
6567996432598074.0,2.28359446768598e-13,1.2814904848010745e-13,3.050046459160075e-13
7258758647331989.0,2.675464461518444e-13,1.501891709568989e-13,3.5725474745581587e-13
8022168958361452.0,3.0932260388216417e-13,1.736885310932294e-13,4.1295167800035037e-13
8865867832670284.0,3.5148068802019596e-13,1.974040087127154e-13,4.691554852170273e-13
9798299292169566.0,3.91180959960792e-13,2.1974042239416092e-13,5.220762063452042e-13
1.0828795424307006e+16,4.246939039221732e-13,2.3859842812402476e-13,5.66744217651355e-13
1.196766978073474e+16,4.491263696276389e-13,2.52352674654513e-13,5.992985724215819e-13
1.3226320598800816e+16,4.615372339213905e-13,2.5934712651543376e-13,6.158210525970419e-13
1.4617344878939542e+16,4.614260940252087e-13,2.593017474475404e-13,6.156419011559476e-13
1.6154664459685974e+16,4.492040331946367e-13,2.5244572610801e-13,5.993128860256486e-13
1.785366535211518e+16,4.263954058944834e-13,2.3963734207650695e-13,5.688648295448381e-13
1.9731351728212508e+16,3.9745850365906767e-13,2.2338200528711524e-13,5.302459801190509e-13
2.180651610434216e+16,3.6079498723002895e-13,2.0278166700379053e-13,4.813235370952854e-13
2.4099927423067212e+16,3.2580982934621384e-13,1.831238867708442e-13,4.3464148389595186e-13
2.663453891570766e+16,2.827597540697922e-13,1.5893010804512117e-13,3.77206069047179e-13
2.9435717825994188e+16,2.474640452469364e-13,1.3909537878089388e-13,3.3011407241373714e-13
3.2531499293969692e+16,2.0401552094829037e-13,1.1467472830185066e-13,2.7215239369884387e-13
3.595286694109382e+16,1.710339804189547e-13,9.613845083632131e-14,2.2815163193899457e-13
3.973406296474025e+16,1.3373282978898176e-13,7.517163016845647e-14,1.783931949128501e-13
4.391293084561755e+16,1.0579871167973635e-13,5.94707379760808e-14,1.4112868178211927e-13
4.853129409804355e+16,7.839995436402346e-14,4.4069531844755485e-14,1.0458055937911466e-13
5.363537485373403e+16,5.755204163358941e-14,3.235084891128709e-14,7.677045575135289e-14
5.927625646843283e+16,3.9852837969857747e-14,2.2401705442018178e-14,5.3161229156263245e-14
6.551039478130543e+16,2.6627011215785445e-14,1.496717271701212e-14,3.551907045270617e-14
7.240018314395342e+16,1.68889625313487e-14,9.493181799047715e-15,2.252934838243937e-14
8.0014576874048e+16,1.020481673431533e-14,5.735906724457608e-15,1.3613191969179262e-14
8.842978338332606e+16,5.9736699170955884e-15,3.3575796693946306e-15,7.969020374885388e-15
9.773002488698126e+16,3.3957184132586256e-15,1.908563358567365e-15,4.530051592057001e-15
1.0800838132790094e+17,1.9587313092605576e-15,1.1009106572985554e-15,2.6130312033718534e-15
1.1936772195202088e+17,1.1399922256356207e-15,6.407566637207436e-16,1.520760913250133e-15
1.3192173485831349e+17,6.838590435448919e-16,3.844021221937812e-16,9.122300461892702e-16
1.4579606482749443e+17,4.058655807153861e-16,2.2815605055430097e-16,5.413731460527667e-16
1.611295708172189e+17,2.3394377634879647e-16,1.3151938772984885e-16,3.1203568547464984e-16
1.780757157092005e+17,1.2612459501313392e-16,7.090882541381887e-17,1.6821922267852106e-16
1.9680410221731542e+17,6.246294979644389e-17,3.5118751583684374e-17,8.330787901810958e-17
2.175021703285644e+17,2.785362081174453e-17,1.5660611976878642e-17,3.714815473729348e-17
2.403770732654649e+17,1.1065000808176461e-17,6.2213464830159054e-18,1.4757152369958797e-17
2.6565775074513146e+17,3.850652836667559e-18,2.1650540728341024e-18,5.135519353196508e-18
2.9359722028490784e+17,1.166796752686748e-18,6.560346672541409e-19,1.5561352902968921e-18
3.244751094867302e+17,3.012709098280709e-19,1.6938703284709446e-19,4.0180552751345873e-19
3.586004546441464e+17,6.60311418089599e-20,3.7124073592554154e-20,8.806833969201373e-20
3.963147936814151e+17,1.196324634934867e-20,6.725524768594981e-21,1.5956684946921685e-20
4.37995584379851e+17,1.7792165956371274e-21,1.000122460644417e-21,2.3733546244336874e-21
4.840599821021587e+17,2.117949313346663e-22,1.1902548150081994e-22,2.825696378211375e-22
5.3496901482352506e+17,1.9784890672147857e-23,1.111362676602586e-23,2.6405687893155537e-23
5.912321972545408e+17,1.433476814302731e-24,8.044056710626624e-25,1.9146398844973335e-24
6.534126302356818e+17,7.765026257154744e-26,4.3466760641185286e-26,1.0390827241418473e-25
7.221326364397932e+17,3.258026418172293e-27,1.812589218872131e-27,4.379949884419998e-27
7.980799887865523e+17,1.0869233794261259e-28,5.954869675487315e-29,1.4778722242003862e-28
8.820147939050378e+17,3.663092121120772e-30,1.95769127289279e-30,5.0695403932434125e-30
9.747770995363352e+17,1.379286199699519e-31,7.236513234463913e-32,1.9332440192080169e-31
1.0772953020136863e+18,5.044080751408288e-33,2.63572341680403e-33,7.089227970773554e-33
1.1905954379650493e+18,1.4281690070456125e-34,7.46733284592641e-35,2.0063940347089594e-34
1.3158114532325087e+18,2.833765884905985e-36,1.4828065116052277e-36,3.9790131574101204e-36
1.4541965517834255e+18,3.6931511278741157e-38,1.932582900671318e-38,5.185547713759605e-38
1.6071357381969318e+18,3.0230223895983177e-40,1.5808714472369032e-40,4.246502005137339e-40
1.7761596792552832e+18,1.4664752934382094e-42,7.659812741966273e-43,2.0616202036316244e-42
1.962960023371512e+18,4.0046235715065063e-45,2.088270531934292e-45,5.636081382981803e-45
2.169406331175284e+18,5.752983233613605e-48,2.994066659864531e-48,8.107395574282253e-48
2.397564786704114e+18,4.082293803140012e-51,2.1195983330915316e-51,5.761973660307374e-51
2.6497188764676337e+18,1.3207233085959358e-54,6.839786057269267e-55,1.867329397935754e-54
2.928392243348102e+18,1.8025681337670646e-58,9.307816089697652e-59,2.553538527617803e-58
3.236373944066632e+18,9.43190155168934e-63,4.855052130928699e-63,1.338888766676347e-62
3.57674636300023e+18,1.7190414927455188e-67,8.817615851512592e-68,2.445857799179923e-67
3.952916061720689e+18,9.726274476912983e-73,4.970464036011527e-73,1.3872028042641659e-72
4.3686478730078336e+18,1.5176844682535896e-78,7.723782688255258e-79,2.1703894299613754e-78
4.828102580561282e+18,5.682109882416457e-85,2.879204522887047e-85,8.148435455048337e-85
5.335878561522323e+18,4.411924760080294e-92,2.224837340042404e-92,6.346345685236737e-92
5.8970578085778e+18,6.000280779757451e-100,3.010702598950321e-100,8.658424281722993e-100
6.517256792251081e+18,1.1949098973356998e-108,5.962560368982328e-109,1.7302265824614167e-108
7.202682672426887e+18,2.8376038185806566e-118,1.4079112140738831e-118,4.123379734206973e-118
7.960195421693565e+18,6.449829936146969e-129,3.180228858753778e-129,9.408398571080043e-129
8.797376482254657e+18,1.092956754871907e-140,5.354684543167273e-141,1.6005137857431882e-140
9.722604643550505e+18,1.0546396668765503e-153,5.131054438268443e-154,1.5508913146781267e-153
1.0745139899999244e+19,4.274104968122019e-168,2.0647523901540679e-168,6.311803675677714e-168
1.1875216128133452e+19,5.230493602517103e-184,2.5074508420748537e-184,7.759064627135186e-184
1.3124143510675956e+19,1.3335993581319113e-201,6.343819418621243e-202,1.9872152570567082e-201
1.450442173265032e+19,4.730973386080239e-221,2.2318332335536033e-221,7.08339577207682e-221
1.6029865082429555e+19,1.4850532781398552e-242,6.947583941511723e-243,2.233986652018481e-242
1.7715740709777402e+19,2.517228529867256e-266,1.167231510129432e-266,3.805521607921728e-266
1.9578921424614842e+19,1.3263356364546614e-292,6.096174339986799e-293,2.0149008536920503e-292
2.1638054565772505e+19,0.0,0.0,0.0
2.391374862982579e+19,0.0,0.0,0.0
2.642877952785487e+19,0.0,0.0,0.0
2.9208318534418182e+19,0.0,0.0,0.0
3.2280184210128945e+19,0.0,0.0,0.0
3.5675120819159155e+19,0.0,0.0,0.0
3.942710602816983e+19,0.0,0.0,0.0
4.357369096621842e+19,0.0,0.0,0.0
4.815637604908005e+19,0.0,0.0,0.0
5.322102632935801e+19,0.0,0.0,0.0
5.881833052934468e+19,0.0,0.0,0.0
6.500430835079284e+19,0.0,0.0,0.0
7.184087113891832e+19,0.0,0.0,0.0
7.939644151195248e+19,0.0,0.0,0.0
8.774663815770412e+19,0.0,0.0,0.0
9.69750326508013e+19,0.0,0.0,0.0
1.0717398586510213e+20,0.0,0.0,0.0
1.1844557235236156e+20,0.0,0.0,0.0
1.3090260193865469e+20,0.0,0.0,0.0
1.4466974876303427e+20,0.0,0.0,0.0
1.5988479905821553e+20,0.0,0.0,0.0
1.7670003016150876e+20,0.0,0.0,0.0
1.952837345575895e+20,0.0,0.0,0.0
2.1582190420625185e+20,0.0,0.0,0.0
2.3852009201245815e+20,0.0,0.0,0.0
2.6360546906889575e+20,0.0,0.0,0.0
2.9132909826063368e+20,0.0,0.0,0.0
3.219684469868555e+20,0.0,0.0,0.0
3.558301641478529e+20,0.0,0.0,0.0
3.932531491902915e+20,0.0,0.0,0.0
4.346119439267731e+20,0.0,0.0,0.0
4.8032048107619444e+20,0.0,0.0,0.0
5.308362270415153e+20,0.0,0.0,0.0
5.866647603872832e+20,0.0,0.0,0.0
