Energy,Neutrino Flux Best Fit,Neutrino Flux Min,Neutrino Flux Max
8160000000.0,4.361317978347522e-23,9.02972996519526e-35,4.361317978347522e-23
9018194691.497286,5.326641281185617e-23,1.1028513117004758e-34,5.326641281185617e-23
9966646506.586987,6.505579683102121e-23,1.346967001061333e-34,6.505579683102121e-23
11014847869.820187,7.945384483563688e-23,1.6451079798976832e-34,7.945384483563688e-23
12173289532.752766,9.7037507918979e-23,2.0092266803383025e-34,9.7037507918979e-23
13453565568.913046,1.1851122414845948e-22,2.4539182295980517e-34,1.1851122414845948e-22
14868489411.186554,1.4473503899409137e-22,2.997004055036441e-34,1.4473503899409137e-22
16432222092.95909,1.7675890649207795e-22,3.660244067377953e-34,1.7675890649207795e-22
18160413976.49854,2.158645199038764e-22,4.47020561624717e-34,2.158645199038764e-22
20070361387.04071,2.6361631061245145e-22,5.459323535063517e-34,2.6361631061245145e-22
22181179720.225807,3.219236043872973e-22,6.667193018548898e-34,3.219236043872973e-22
24513994755.402897,3.931163466748361e-22,8.142146071423834e-34,3.931163466748361e-22
27092154089.53023,4.8003731685827915e-22,9.943173146264093e-34,4.8003731685827915e-22
29941460807.773033,5.86154361152512e-22,1.2142264723037939e-33,5.86154361152512e-22
33090431729.452553,7.156969027490727e-22,1.482726340679124e-33,7.156969027490727e-22
36570582813.9586,8.73821855894792e-22,1.810533613747087e-33,8.73821855894792e-22
40416744583.06414,1.0668149476889198e-21,2.2107197255791448e-33,1.0668149476889198e-21
44667410716.49396,1.3023332029229638e-21,2.699222460029065e-33,1.3023332029229638e-21
49365123309.60964,1.5897034620176889e-21,3.29547260663267e-33,1.5897034620176889e-21
54556898648.99885,1.9402787567645624e-21,4.023149105900886e-33,1.9402787567645624e-21
60294697767.27411,2.3678730600935495e-21,4.9111001023822265e-33,2.3678730600935495e-21
66635946486.55204,2.8892805589559223e-21,5.9944517753316676e-33,2.8892805589559223e-21
73644110155.38243,3.524906690511152e-21,7.315958105391982e-33,3.524906690511152e-21
81389328831.28815,4.299518404308015e-21,8.927620090588773e-33,4.299518404308015e-21
89949119266.03549,5.24309274882167e-21,1.089258811967116e-32,5.24309274882167e-21
99409150719.34035,6.391527296790709e-21,1.3287118824377794e-32,6.391527296790709e-21
109864102365.6138,7.787771047306504e-21,1.620323465636696e-32,7.787771047306504e-21
121418610874.96236,9.483168904438366e-21,1.975185371791836e-32,9.483168904438366e-21
134188317652.15198,1.1539034393770213e-20,2.4066561401098723e-32,1.1539034393770213e-20
148301026214.65543,1.402876848158744e-20,2.9308304973908386e-32,1.402876848158744e-20
163897981293.21136,1.704009613130488e-20,3.5670773466610693e-32,1.704009613130488e-20
181135282456.56375,2.0678175676374742e-20,4.33872231587008e-32,2.0678175676374742e-20
200185446408.41232,2.5068851892464853e-20,5.273820390147157e-32,2.5068851892464853e-20
221239133592.56842,3.0362772875983426e-20,6.406099355369026e-32,3.0362772875983426e-20
244507056386.75974,3.674035675572551e-20,7.776092552006864e-32,3.674035675572551e-20
270222087982.92926,4.4417967750007245e-20,9.432514845773814e-32,4.4417967750007245e-20
298641593060.4124,5.36504184047461e-20,1.1433377722885324e-31,5.36504184047461e-20
330050003578.14996,6.47215288389279e-20,1.384597691166128e-31,6.47215288389279e-20
364761665465.33484,7.802310526048585e-20,1.6756536534307484e-31,7.802310526048585e-20
403123984701.12634,9.395920933523646e-20,2.026097141815757e-31,9.395920933523646e-20
445520904270.457,1.1308986522092672e-19,2.4483174810144787e-31,1.1308986522092672e-19
492376746794.47394,1.3599101837679398e-19,2.9559501594888314e-31,1.3599101837679398e-19
544160461293.9493,1.6345811150189613e-19,3.5667049948844076e-31,1.6345811150189613e-19
601390316588.7017,1.9630887306829368e-19,4.2998732054734745e-31,1.9630887306829368e-19
664639088306.14,2.3568769937741e-19,5.1808664582630605e-31,2.3568769937741e-19
734539791412.2579,2.827473085608251e-19,6.236801373765703e-31,2.827473085608251e-19
811792015638.1803,3.391247658613463e-19,7.503979560189403e-31,3.391247658613463e-19
897168927209.328,4.064552475673836e-19,9.020494114640233e-31,4.064552475673836e-19
991525006952.8773,4.870162294928182e-19,1.0837412879831701e-30,4.870162294928182e-19
1095804602229.0739,5.83114170351522e-19,1.3007944524873872e-30,5.83114170351522e-19
1211051378277.0251,6.980056294910862e-19,1.5604651700539553e-30,6.980056294910862e-19
1338418763567.199,8.349335685662559e-19,1.8701505442618426e-30,8.349335685662559e-19
1479181493701.234,9.984506121914603e-19,2.240031255863883e-30,9.984506121914603e-19
1634748369394.3013,1.1930700417744255e-18,2.6803073379525945e-30,1.1930700417744255e-18
1806676356226.1672,1.4251916215398059e-18,3.205259899584481e-30,1.4251916215398059e-18
1996686167276.0383,1.7011001580951648e-18,3.828905440411731e-30,1.7011001580951648e-18
2206679484597.4067,2.0297756647203787e-18,4.571209792653334e-30,2.0297756647203787e-18
2438757991891.212,2.4199559458672786e-18,5.451351292647718e-30,2.4199559458672786e-18
2695244408862.735,2.8841941086531396e-18,6.49712357585874e-30,2.8841941086531396e-18
2978705737781.084,3.4346228247547095e-18,7.734662520191463e-30,3.4346228247547095e-18
3291978954900.7183,4.088792820067546e-18,9.202563258855709e-30,4.088792820067546e-18
3638199403873.34,4.863542704824454e-18,1.0936322771247168e-29,4.863542704824454e-18
4020832175320.9717,5.7833047388666815e-18,1.2989294165153898e-29,5.7833047388666815e-18
4443706786627.584,6.871105754453609e-18,1.540918425754149e-29,6.871105754453609e-18
4911055509036.191,8.160581367125875e-18,1.8269158967738403e-29,8.160581367125875e-18
5427555725641.992,9.683260146059303e-18,2.1633149280266722e-29,9.683260146059303e-18
5998376744214.502,1.148550684380161e-17,2.5601252113171985e-29,1.148550684380161e-17
6629231533367.153,1.3610267794567343e-17,3.0258637108291423e-29,1.3610267794567343e-17
7326433899867.414,1.6121231263556834e-17,3.5741617286953825e-29,1.6121231263556834e-17
8096961679337.014,1.9076678687191853e-17,4.216307693700162e-29,1.9076678687191853e-17
8948526572776.22,2.2563875879763984e-17,4.970786989267463e-29,2.2563875879763984e-17
9889651327859.432,2.666167549062408e-17,5.852492466898546e-29,2.666167549062408e-17
10929755037458.451,3.1489303914800873e-17,6.886380348797876e-29,3.1489303914800873e-17
12079247409089.898,3.715298226895045e-17,8.091997351900578e-29,3.715298226895045e-17
13349632948766.764,4.381499602232268e-17,9.502866760446958e-29,4.381499602232268e-17
14753626101961.475,5.161720987171739e-17,1.1144447941505789e-28,5.161720987171739e-17
16305278504049.611,6.077841265159056e-17,1.30613976408608e-28,6.077841265159056e-17
18020119613799.625,7.148675688086473e-17,1.5286641484911775e-28,7.148675688086473e-17
19915312137415.926,8.403671336417244e-17,1.7879376563791184e-28,8.403671336417244e-17
22009823798671.04,9.867660745138183e-17,2.088192149878945e-28,9.867660745138183e-17
24324617174260.504,1.1580075075933568e-16,2.4372200177032284e-28,1.1580075075933568e-16
26882859494316.137,1.3573480238165088e-16,2.8404200809637145e-28,1.3573480238165088e-16
29710154507832.047,1.5900426390947377e-16,3.307974312426115e-28,1.5900426390947377e-16
32834798733590.074,1.8603348200162327e-16,3.8467148497686877e-28,1.8603348200162327e-16
36288064661230.84,2.1751919501335557e-16,4.469836834721595e-28,2.1751919501335557e-16
40104513736840.94,2.5400980731488077e-16,5.185898662591457e-28,2.5400980731488077e-16
44322342265521.9,2.964213250753767e-16,6.011815050800405e-28,2.964213250753767e-16
48983763692849.99,3.4545337623836337e-16,6.958148130241856e-28,3.4545337623836337e-16
54135431091227.58,4.02304081373378e-16,8.046362948615708e-28,4.02304081373378e-16
59828904079512.92,4.678594346133481e-16,9.289321899039063e-28,4.678594346133481e-16
66121164849015.13,5.436755245409002e-16,1.0713933351673082e-27,5.436755245409002e-16
73075188460417.27,6.308621204357851e-16,1.23355766330034e-27,6.308621204357851e-16
80760573119350.44,7.314267150879028e-16,1.418753842118939e-27,7.314267150879028e-16
89254236738627.95,8.467430579569364e-16,1.6287797429253686e-27,8.467430579569364e-16
98641186758570.62,9.79382372264965e-16,1.8676916245966847e-27,9.79382372264965e-16
109015370930040.89,1.1310213756283387e-15,2.1375302232078945e-27,1.1310213756283387e-15
120480617575110.72,1.3049274998390808e-15,2.4431543109861263e-27,1.3049274998390808e-15
133151674735806.08,1.5031140045218629e-15,2.786791217566019e-27,1.5031140045218629e-15
147155358611080.75,1.7297055082488371e-15,3.1741558031021793e-27,1.7297055082488371e-15
162631822775959.22,1.9870863794272956e-15,3.60756335568872e-27,1.9870863794272956e-15
179735960885622.8,2.2804235318915865e-15,4.0935957034631856e-27,2.2804235318915865e-15
198638956903172.72,2.612469013364077e-15,4.634466177678553e-27,2.612469013364077e-15
219529998366268.34,2.989636496187409e-15,5.237569102210563e-27,2.989636496187409e-15
242618169839594.12,3.4150127366167587e-15,5.904737318328062e-27,3.4150127366167587e-15
268134545503457.53,3.8964867718299894e-15,6.644047523406999e-27,3.8964867718299894e-15
296334501821852.56,4.437386664239127e-15,7.456556945933454e-27,4.437386664239127e-15
327500273435946.94,5.047320741072729e-15,8.350801858610104e-27,5.047320741072729e-15
361943777863231.0,5.729677766381862e-15,9.326542364981988e-27,5.729677766381862e-15
400009737272875.06,6.4960420114086604e-15,1.0392460581027938e-26,6.4960420114086604e-15
442079128581061.8,7.349562753782556e-15,1.1546378011900325e-26,7.349562753782556e-15
488572996396014.2,8.304063297227435e-15,1.2796735172761197e-26,8.304063297227435e-15
539956666973953.8,9.361988914497139e-15,1.413867737118954e-26,9.361988914497139e-15
596744405360671.1,1.053966544541444e-14,1.557998549892147e-26,1.053966544541444e-14
659504562328959.0,1.183815673581237e-14,1.7112352433639882e-26,1.183815673581237e-14
728865262624173.5,1.3276557332132952e-14,1.874253300889521e-26,1.3276557332132952e-14
805520691447805.6,1.4853609762127657e-14,2.0458051124120608e-26,1.4853609762127657e-14
890238042096303.1,1.659146055693146e-14,2.2264443960309817e-26,1.659146055693146e-14
983865194289438.0,1.848527927480243e-14,2.414454342750514e-26,1.848527927480243e-14
1087339200035533.1,2.0560591146523713e-14,2.610279770386911e-26,2.0560591146523713e-14
1201695661962910.0,2.2807373996514247e-14,2.8117152163338883e-26,2.2807373996514247e-14
1328079097979072.0,2.5254933609253693e-14,3.0191532933981985e-26,2.5254933609253693e-14
1467754395990611.0,2.7885999843138037e-14,3.229920887317274e-26,2.7885999843138037e-14
1622119473326510.8,3.073415817481133e-14,3.444460815886751e-26,3.073415817481133e-14
1792719267564645.2,3.377229900066723e-14,3.659689175633082e-26,3.377229900066723e-14
1981261198786321.0,3.703890149557087e-14,3.876236236095354e-26,3.703890149557087e-14
2189632258010335.8,4.049378754092789e-14,4.0906849632227684e-26,4.049378754092789e-14
2419917892833339.0,4.418109972251351e-14,4.3040070698528326e-26,4.418109972251351e-14
2674422879290307.5,4.804366054620265e-14,4.512534500643815e-26,4.804366054620265e-14
2955694388827785.0,5.213230348233334e-14,4.7177365635068046e-26,5.213230348233334e-14
3266547481251842.0,5.636823358425339e-14,4.915772085312031e-26,5.636823358425339e-14
3610093278792791.0,6.08104303130087e-14,5.1087584985079214e-26,6.08104303130087e-14
3989770103262159.5,6.535327325355199e-14,5.292750818659582e-26,6.535327325355199e-14
4409377887933010.5,7.006596588620644e-14,5.470648493283774e-26,7.006596588620644e-14
4873116208549384.0,7.481043366927198e-14,5.638451585856123e-26,7.481043366927198e-14
5385626314091840.0,7.966899736126305e-14,5.799936364080299e-26,7.966899736126305e-14
5952037577957242.0,8.446539858280835e-14,5.951060709917266e-26,8.446539858280835e-14
6578018834451769.0,8.929906396362367e-14,6.096518500090602e-26,8.929906396362367e-14
7269835114389961.0,9.395042172902803e-14,6.232216222418048e-26,9.395042172902803e-14
8034410347628931.0,9.854162440241307e-14,6.363782208421494e-26,9.854162440241307e-14
8879396660085547.0,1.0280652926938268e-13,6.487107480654905e-26,1.0280652926938268e-13
9813250958784578.0,1.0689795898158786e-13,6.608812637187554e-26,1.0689795898158786e-13
1.0845319571426696e+16,1.1050339618670582e-13,6.724917878277451e-26,1.1050339618670582e-13
1.1985931787577428e+16,1.1381677136879724e-13,6.843132568269291e-26,1.1381677136879724e-13
1.324650323766903e+16,1.164836793525082e-13,6.959766053009897e-26,1.164836793525082e-13
1.4639650144466714e+16,1.187504101684414e-13,7.083524507113855e-26,1.187504101684414e-13
1.617931559046656e+16,1.2022901665222243e-13,7.210876825335391e-26,1.2022901665222243e-13
1.7880909064951594e+16,1.212268667934883e-13,7.350846358631281e-26,1.212268667934883e-13
1.9761460687339716e+16,1.2133280208966795e-13,7.499177188381866e-26,1.2133280208966795e-13
2.1839791650343044e+16,1.209169548420991e-13,7.663520092761402e-26,1.209169548420991e-13
2.4136702588790476e+16,1.1955581418243478e-13,7.836955472118088e-26,1.1955581418243478e-13
2.6675181759372424e+16,1.176741345435108e-13,8.023100482913143e-26,1.176741345435108e-13
2.948063511484043e+16,1.1484787446499375e-13,8.209655007623756e-26,1.1484787446499375e-13
3.2581140575321364e+16,1.1153911744819842e-13,8.393656517947277e-26,1.1153911744819842e-13
3.6007729041579636e+16,1.0733837961843682e-13,8.555152227357096e-26,1.0733837961843682e-13
3.979469496270171e+16,1.0272307985685701e-13,8.684796451386181e-26,1.0272307985685701e-13
4.397993956646938e+16,9.731855499796505e-14,8.75506445378113e-26,9.731855499796505e-14
4.8605350187586536e+16,9.15972167010036e-14,8.75672323091751e-26,9.15972167010036e-14
5.371721949020334e+16,8.524228584027787e-14,8.657869016299543e-26,8.524228584027787e-14
5.936670878045908e+16,7.870693620227236e-14,8.463734875515416e-26,7.870693620227236e-14
6.5610360046029544e+16,7.174893183963413e-14,8.141147274160771e-26,7.174893183963413e-14
7.251066184734424e+16,6.479322120320023e-14,7.727568168843405e-26,6.479322120320023e-14
8.013667472410238e+16,5.767014235121309e-14,7.185126089606035e-26,5.767014235121309e-14
8.856472237636558e+16,5.0767118555087715e-14,6.594372669734489e-26,5.0767118555087715e-14
9.787915553780294e+16,4.396302190955728e-14,5.90140455533974e-26,4.396302190955728e-14
1.0817319618618294e+17,3.7593474433752304e-14,5.225001481851232e-26,3.7593474433752304e-14
1.195498705402607e+17,3.1554048679027655e-14,4.487374943986595e-26,3.1554048679027655e-14
1.3212304018080493e+17,2.610989452183878e-14,3.8246494846249453e-26,2.610989452183878e-14
1.4601854161556554e+17,2.1154834620409508e-14,3.1446857570544995e-26,2.1154834620409508e-14
1.6137544569334195e+17,1.6865265984668847e-14,2.571151005576903e-26,1.6865265984668847e-14
1.7834744947177782e+17,1.3133639308863828e-14,2.0203218442135305e-26,1.3133639308863828e-14
1.9710441446917443e+17,1.0039175405063429e-14,1.5772030953902157e-26,1.0039175405063429e-14
2.178340666956608e+17,7.480469060552937e-15,1.1832638955629216e-26,7.480469060552937e-15
2.4074387547819478e+17,5.453621387349434e-15,8.77492899465794e-27,5.453621387349434e-15
2.660631298833263e+17,3.868697049881241e-15,6.272091706824866e-27,3.868697049881241e-15
2.940452335192364e+17,2.674404304780687e-15,4.393266336678449e-27,2.674404304780687e-15
3.24970240684222e+17,1.7951362187994347e-15,2.9754088670089147e-27,1.7951362187994347e-15
3.5914765924424634e+17,1.1691449946963112e-15,1.9579097109317762e-27,1.1691449946963112e-15
3.969195482916827e+17,7.374456182515903e-16,1.2489971657461924e-27,7.374456182515903e-16
4.3866394158769094e+17,4.494806013251909e-16,7.704432319055446e-28,4.494806013251909e-16
4.8479863105115136e+17,2.64516938887301e-16,4.618034457413457e-28,2.64516938887301e-16
5.3578534816061696e+17,1.497783018823986e-16,2.66909546838804e-28,1.497783018823986e-16
5.921343851181504e+17,8.151700891538747e-17,1.496023927323255e-28,8.151700891538747e-17
6.54409702025184e+17,4.2428151225231043e-17,8.027620337449055e-29,4.2428151225231043e-17
7.232345711847845e+17,2.1063086767235095e-17,4.129214500592129e-29,2.1063086767235095e-17
7.992978150203368e+17,9.90730320115296e-18,2.0056278771439414e-29,9.90730320115296e-18
8.83360700041883e+17,4.394094153002549e-18,9.167969847994757e-30,4.394094153002549e-18
9.76264555857236e+17,1.823692565079222e-18,3.893471806411094e-30,1.823692565079222e-18
1.0789391954814536e+18,7.038245308206512e-19,1.52879900615846e-30,7.038245308206512e-19
1.1924122212180403e+18,2.5057728730046276e-19,5.49451720751103e-31,2.5057728730046276e-19
1.3178193092481656e+18,8.17445297855533e-20,1.8017682085142123e-31,8.17445297855533e-20
1.456415575859608e+18,2.4237642922273705e-20,5.344648580793783e-32,2.4237642922273705e-20
1.6095881390724383e+18,6.487276508179837e-21,1.4327752270296659e-32,6.487276508179837e-21
1.7788700013823624e+18,1.5540807560540728e-21,3.442303622608263e-33,1.5540807560540728e-21
1.9659553925649697e+18,3.3042910799722803e-22,7.389512230899496e-34,3.3042910799722803e-22
2.172716726096801e+18,6.170096726019051e-23,1.400932120064617e-34,6.170096726019051e-23
2.4012233388987116e+18,9.985338056543966e-24,2.3160526494494788e-35,9.985338056543966e-24
2.6537622019553654e+18,1.3791240986203459e-24,3.2764441534188846e-36,1.3791240986203459e-24
2.932860809089467e+18,1.5918160533959616e-25,3.872440138062214e-37,1.5918160533959616e-25
3.2413124729694863e+18,1.502608164104871e-26,3.731562954802825e-38,1.502608164104871e-26
3.5822042815217403e+18,1.1269140275510349e-27,2.8432645754566424e-39,1.1269140275510349e-27
3.958947994543889e+18,6.535089839947921e-29,1.6666696856897155e-40,6.535089839947921e-29
4.37531418974382e+18,2.8271275886540795e-30,7.253379581060989e-42,2.8271275886540795e-30
4.835469999948592e+18,8.834048112074006e-32,2.270797020055054e-43,8.834048112074006e-32
5.344020819170427e+18,1.910442768714112e-33,4.9044609061728707e-45,1.910442768714112e-33
5.906056394937962e+18,2.751601420633466e-35,7.035302450369423e-47,2.751601420633466e-35
6.527201768200123e+18,2.509483875508586e-37,6.378054039292743e-49,2.509483875508586e-37
7.213673570626732e+18,1.3836354515160108e-39,3.488849424453053e-51,1.3836354515160108e-39
7.972342242747592e+18,4.34485879733369e-42,1.085644571578748e-53,4.34485879733369e-42
8.810800795630605e+18,7.345241481297422e-45,1.8159317052669815e-56,7.345241481297422e-45
9.737440804288737e+18,6.227868994161437e-48,1.5222994718951229e-59,6.227868994161437e-48
1.076153639338303e+19,2.472270372976525e-51,5.966758493347147e-63,2.472270372976525e-51
1.1893337055779635e+19,4.2215674616155064e-55,1.0055311257408053e-66,4.2215674616155064e-55
1.314417023291912e+19,2.8495353355937115e-59,6.6899290938158796e-71,2.8495353355937115e-59
1.452655468365779e+19,6.865513669646894e-64,1.5882286805920992e-75,6.865513669646894e-64
1.6054325776214202e+19,5.321110351338724e-69,1.2114054233478748e-80,5.321110351338724e-69
1.7742773957184145e+19,1.1725488046064046e-74,2.6265406685671893e-86,1.1725488046064046e-74
1.9608797783469924e+19,6.463657914188817e-81,1.422833675404682e-92,6.463657914188817e-81
2.167107304871721e+19,7.673415407536832e-88,1.6597837339116177e-99,7.673415407536832e-88
2.395023969693517e+19,1.6761837293032393e-95,3.558312110556084e-107,1.6761837293032393e-95
2.6469108393993703e+19,5.616024258685159e-104,1.1701418287334691e-115,5.616024258685159e-104
2.925288882443379e+19,2.379515432239292e-113,4.860134812159278e-125,2.379515432239292e-113
3.232944199846439e+19,1.0217860775940858e-123,2.0461030666638903e-135,1.0217860775940858e-123
3.572955909431634e+19,3.509503425249612e-135,6.88146692473337e-147,3.509503425249612e-135
3.94872696267036e+19,7.364114154261587e-148,1.4142042080300023e-159,7.364114154261587e-148
4.364018202564472e+19,7.063551308290491e-162,1.3268811344831434e-173,7.063551308290491e-162
4.822986003427005e+19,2.230543077064256e-177,4.0997298757143504e-189,2.230543077064256e-177
5.33022386927343e+19,1.6257021396311683e-194,2.9200206468401536e-206,1.6257021396311683e-194
5.890808407153655e+19,1.8331371198905473e-213,3.218744939416776e-225,1.8331371198905473e-213
6.510350135541735e+19,2.0706134083720337e-234,3.549826368619645e-246,2.0706134083720337e-234
