Energy,Neutrino Flux Best Fit,Neutrino Flux Min,Neutrino Flux Max
8966942148.76033,2.314049185482285e-23,7.371500194979633e-24,3.6048607936427427e-23
9910003686.876675,2.826199536434865e-23,9.002927906913566e-24,4.402709357544598e-23
10952247872.758547,3.4516690587297e-23,1.0995308770436972e-23,5.377096214666059e-23
12104105836.528624,4.2155181959368907e-23,1.3428459630391488e-23,6.567064715387722e-23
13377105759.841143,5.1483441364523475e-23,1.6399828558968348e-23,8.020285122361388e-23
14783988253.79867,6.287501776103275e-23,2.0028381557431777e-23,9.794957374088543e-23
16338833871.270267,7.678592919099206e-23,2.4459342565792133e-23,1.196213202916776e-22
18057204029.79725,9.377282200091989e-23,2.9869972568398996e-23,1.4608540633410796e-22
19956296755.49031,1.145151076053972e-22,3.647661333934735e-23,1.78400463632393e-22
22055118806.655293,1.3984193866481216e-22,4.454326932244046e-23,2.178584949211051e-22
24374675899.81871,1.707650691202598e-22,5.439205883513463e-23,2.660361079236594e-22
26938182941.99901,2.0851886191052143e-22,6.641593500273421e-23,3.248569033939123e-22
29771296373.298798,2.54608970982491e-22,8.109415958034898e-23,3.966674037934201e-22
32902370945.18083,3.1087153780740357e-22,9.90111113402595e-23,4.84329401439937e-22
36362743504.35101,3.7954511518911393e-22,1.2087912741171972e-22,5.913321906521789e-22
40187046622.45289,4.633579714430708e-22,1.4756621339334387e-22,7.219288418688914e-22
44413555210.48512,5.656338422921334e-22,1.8012958274291748e-22,8.81301340564578e-22
49084569586.97531,6.904188115593108e-22,2.1985582584331854e-22,1.075758911252757e-21
54246838833.78551,8.42637906739539e-22,2.683105474301355e-22,1.3129826249180402e-21
59952028676.63643,1.0282808507938595e-21,3.2739707336823434e-22,1.6023160112938783e-21
66257238573.05583,1.2546286123953924e-21,3.994280473967597e-22,1.955119512792628e-21
73225573182.94133,1.5305223352378803e-21,4.872101821514216e-22,2.3851918826783802e-21
80926773941.20679,1.866689676809662e-21,5.941470385836942e-22,2.9092817115378033e-21
89437917053.50392,2.276129882372859e-21,7.243598842972698e-22,3.5476921425386306e-21
98844184900.79456,2.774538068951556e-21,8.8281920336999e-22,4.324951591286607e-21
109239718573.25015,3.380602383048881e-21,1.0754280104809542e-21,5.270307035128752e-21
120728560065.92426,4.116546758037054e-21,1.3091867073548316e-21,6.4185910532840455e-21
133425693566.00848,5.008772768602804e-21,1.5923876528322366e-21,7.811248205187855e-21
147458196253.22565,6.088595307130381e-21,1.934835749754489e-21,9.497517926768594e-21
162966510130.95642,7.393282682219916e-21,2.348168426164071e-21,1.1536085183860421e-20
180105847617.01337,8.967086355298305e-21,2.8461620222807994e-21,1.3996742536359856e-20
199047744961.68738,1.0862765548843428e-20,3.4452007688030286e-21,1.696280987887274e-20
219981779040.19543,1.3143078663528647e-20,4.1647199437878716e-21,2.053354328878723e-20
243117464701.76706,1.5882715342514658e-20,5.027787319350852e-21,2.4827235891845333e-20
268686351664.67578,1.9170618414275168e-20,6.061801081137525e-21,2.998494676410603e-20
296944341943.64594,2.3112913008080667e-20,7.299376939497085e-21,3.6175187004161484e-20
328174251003.2282,2.783306024023549e-20,8.778234082844631e-21,4.359459547736167e-20
362688638270.0258,3.346356631526831e-20,1.0538089161956921e-20,5.24562675966411e-20
400832935332.49097,4.019750753907555e-20,1.263846521664078e-20,6.30662865713225e-20
442988903136.3657,4.822079207214865e-20,1.5134695937645157e-20,7.57246706497323e-20
489578452776.54126,5.780618434182212e-20,1.8110427058356e-20,9.086502129300254e-20
541067868125.1055,6.921510269983949e-20,2.1642970231582687e-20,1.0891054505315114e-19
597972472557.0562,8.282954379109943e-20,2.5848712536465815e-20,1.3047050788911062e-19
660861786479.8464,9.901511395171839e-20,3.083500620409192e-20,1.5613885105025042e-19
730365227285.0449,1.1831673236424273e-19,3.676729343811659e-20,1.8678625792808897e-19
807178408769.1418,1.412403201382909e-19,4.3792794283083956e-20,2.232381833378816e-19
892070103070.2334,1.6855710084641144e-19,5.2144605039787276e-20,2.667297256567121e-19
985889934797.967,2.0097430663997578e-19,6.202717072397384e-20,3.1841842438736556e-19
1089576884362.2102,2.395399440569924e-19,7.37537548899552e-20,3.7999197732843534e-19
1204168685604.5872,2.8523428130650197e-19,8.760547402623953e-20,4.530608489619068e-19
1330812211787.567,3.3954025471715407e-19,1.0402383098144344e-19,5.400178734644002e-19
1470774953887.5496,4.0380996838696516e-19,1.2339323919163043e-19,6.430933283649867e-19
1625457706070.5708,4.800717718278152e-19,1.4631165339894617e-19,7.655759873204136e-19
1796408585311.15,5.701594399680943e-19,1.732940921047002e-19,9.105076018798021e-19
1985338525467.298,6.76869939167677e-19,2.0515837239041218e-19,1.082441185149945e-18
2194138400881.6455,8.026914755707758e-19,2.425951476314258e-19,1.2855258698141248e-18
2424897950887.403,9.514690080415553e-19,2.8671911943432004e-19,1.5260461763896615e-18
2679926694621.987,1.1265675177286806e-18,3.3845307870952006e-19,1.8096433361427396e-18
2961777045470.8184,1.3332388931692318e-18,3.9930513126386366e-19,2.144940239289462e-18
3273269856478.3623,1.5760198525330766e-18,4.705042277332848e-19,2.539583086087354e-18
3617522652393.5337,1.8620824168002335e-18,5.5409094636663335e-19,3.0053979641781703e-18
3997980830905.216,2.19753160049966e-18,6.516994729412184e-19,3.5527267523570186e-18
4418452145340.356,2.5920857232233544e-18,7.66065761657105e-19,4.197672062948895e-18
4883144813939.119,3.053722292327872e-18,8.992821049378992e-19,4.9538631994511584e-18
5396709637117.432,3.5953517940147286e-18,1.0549284165423877e-18,5.8428384483698125e-18
5964286544240.765,4.227391701783115e-18,1.2356826325472504e-18,6.882541053312349e-18
6591556035764.801,4.967004989424153e-18,1.4462342630088408e-18,8.101789847357504e-18
7284796035593.26,5.827604238132968e-18,1.6899477095762925e-18,9.523910318603172e-18
8050944722650.445,6.831831365823797e-18,1.9729084283468197e-18,1.1187191741755645e-17
8897669970507.879,7.996738287095175e-18,2.299271997101189e-18,1.3121614478365893e-17
9833446090040.309,9.352019932831778e-18,2.676879216883177e-18,1.5377770542355857e-17
10867638643177.244,1.0919090105982972e-17,3.110776709205437e-18,1.7993769582239e-17
12010598176594.574,1.273664911751436e-17,3.610989980860079e-18,2.1036063255791054e-17
13273763813464.732,1.4831141482799734e-17,4.183501534765983e-18,2.4552382700479868e-17
14669777740046.121,1.7252628823235928e-17,4.841013491780858e-18,2.862940150680363e-17
16212611732932.467,2.0032882188270015e-17,5.59032116673948e-18,3.3325514817385225e-17
17917706993289.0,2.32356660086247e-17,6.447192919717135e-18,3.875221944720897e-17
19802128687583.65,2.6898155953243102e-17,7.419005207233376e-18,4.497938292753519e-17
21884736741508.953,3.110141026537043e-17,8.525303434982489e-18,5.215007880109225e-17
24186374596457.297,3.588780036302485e-17,9.773695184682203e-18,6.034608042776016e-17
26730077817688.223,4.1359635355430784e-17,1.118820390020871e-17,6.974970026100526e-17
29541304642007.99,4.75635618432168e-17,1.2776081749327116e-17,8.045396852288005e-17
32648190772360.402,5.4627933334445654e-17,1.45666667496247e-17,9.268975225358818e-17
36081830969398.42,6.260197500999098e-17,1.6566065805259197e-17,1.0655936314636236e-16
39876590258300.375,7.164566124346039e-17,1.8809868286751698e-17,1.2235315748333542e-16
44070447865492.234,8.180794876050836e-17,2.1302003076979493e-17,1.4017863006039006e-16
48705377327511.0,9.328759017196178e-17,2.4085617855212107e-17,1.6039938096500535e-16
53827766576266.25,1.0612991399017243e-16,2.716155274669634e-17,1.8312242736568118e-16
59488882205053.805,1.205792789264697e-16,3.058152182350467e-17,2.087983734732693e-16
65745382561853.34,1.3667009188799305e-16,3.4341495888512665e-17,2.375209441363862e-16
72659884805118.11,1.5470001733421519e-16,3.8502903473906995e-17,2.6984323487920397e-16
80301591597343.14,1.7468214922674286e-16,4.305478491410457e-17,3.0582614689096515e-16
88746983708571.58,1.9697564345721713e-16,4.8069469557791016e-17,3.461418230610032e-16
98080585461646.55,2.2155632610376362e-16,5.3526261655313497e-17,3.907873919161138e-16
108395810680044.89,2.4885304375104685e-16,5.950949775345648e-17,4.4057084663653965e-16
119795897604819.27,2.787805187734767e-16,6.598490657819468e-17,4.9537836339634515e-16
132394942137614.58,3.118464849243381e-16,7.305025012522404e-17,5.561721581508359e-16
146319039750799.7,3.4787134761622527e-16,8.065293325005859e-17,6.226601036136716e-16
161707547493338.4,3.874537848786584e-16,8.890653981637005e-17,6.959812878539826e-16
178714478722974.16,4.302748112887511e-16,9.773437742478237e-17,7.755720831935273e-16
197510044523680.06,4.7704010078426e-16,1.0726954358901654e-16,8.627772604787033e-16
218282357235397.8,5.272317049068899e-16,1.174043247944367e-16,9.566366250299234e-16
241239313145561.03,5.816872175960633e-16,1.2829776382725654e-16,1.0587434940488873e-15
266610673185018.22,6.396165989603398e-16,1.3980410237607022e-16,1.167583629208114e-15
294650362452652.94,7.020289339076526e-16,1.5211893994970685e-16,1.2850658767800987e-15
325639011583120.6,7.677752803359903e-16,1.6505173825178294e-16,1.40893072287668e-15
359886765392564.44,8.380981187111663e-16,1.788510784178011e-16,1.5415077977237147e-15
397736386912175.5,9.11392626156311e-16,1.9327626097295428e-16,1.67957294446177e-15
439566687875819.8,9.89230146392907e-16,2.086533207281251e-16,1.826041198620098e-15
485796319995191.25,1.0694514120595651e-15,2.2468919543124625e-16,1.9764920650814632e-15
536887964966856.44,1.154101039340315e-15,2.418228655655032e-16,2.1346790742142176e-15
593352965146187.6,1.2403819507258119e-15,2.5971314788269744e-16,2.2947730767682375e-15
655756441233519.9,1.331024906943362e-15,2.7896245108130836e-16,2.4617441042951395e-15
724722948192068.2,1.4225531515940643e-15,2.99197160031627e-16,2.6282114255500087e-15
800942726003917.8,1.5186829463836791e-15,3.2125249226316876e-16,2.8008974570210824e-15
885178607823761.4,1.6152888425495628e-15,3.4475512485482523e-16,2.9708569718443494e-15
978273654669511.5,1.7174623249984821e-15,3.708625309542657e-16,3.1472647804922572e-15
1081159593060322.6,1.8205569052063462e-15,3.992541188633942e-16,3.3197784949175667e-15
1194866140048769.8,1.9314877442723864e-15,4.31512089497376e-16,3.5008320281808435e-15
1320531308975204.0,2.0453179560140293e-15,4.674380623166918e-16,3.679055795233145e-15
1459412799087762.2,2.1712320186662315e-15,5.091428202507706e-16,3.870939052142304e-15
1612900583019175.2,2.3044025093492628e-15,5.566575393495304e-16,4.0647615516869884e-15
1782530818100048.5,2.4567148079019723e-15,6.127395173814941e-16,4.281792566669396e-15
1970001220737765.5,2.6238920425598617e-15,6.77746462768734e-16,4.510764849816088e-15
2177188057732902.0,2.8205250734538226e-15,7.550834675147796e-16,4.77773531693205e-15
2406164924588006.5,3.0430017292828395e-15,8.453881258874108e-16,5.072289734241824e-15
2659223498748352.0,3.307355527605039e-15,9.523093478508435e-16,5.4233100056795115e-15
2938896475480051.5,3.607992673677322e-15,1.0756916824078642e-15,5.817727957028774e-15
3247982915935572.0,3.9554330515499546e-15,1.2170114696853563e-15,6.276950452667448e-15
3589576261098534.0,4.329175960122215e-15,1.3704885919463139e-15,6.767032145224674e-15
3967095291980816.0,4.714796746982607e-15,1.5285129135712437e-15,7.27357357969964e-15
4384318345932023.5,5.058963186524271e-15,1.6730376099520433e-15,7.716324191957754e-15
4845421131509598.0,5.310026021597951e-15,1.78308836419073e-15,8.026927492916988e-15
5355018520373604.0,5.409012111132091e-15,1.838222675276955e-15,8.117948221157752e-15
5918210734473390.0,5.309085313434183e-15,1.8196317884503025e-15,7.926835130835955e-15
6540634390783106.0,5.018050076888366e-15,1.7309205229623035e-15,7.462751233770216e-15
7228518914458930.0,4.550781181301344e-15,1.5763217078577242e-15,6.750222270383304e-15
7988748885019757.0,3.980918462951001e-15,1.3832004244479427e-15,5.893506785955664e-15
8828932939533088.0,3.359725227079198e-15,1.1695782946333052e-15,4.9679355426465455e-15
9757479922412106.0,2.7430388926496354e-15,9.561365338990387e-16,4.052745585968287e-15
1.0783683043956882e+16,2.1804669627414935e-15,7.607003815956098e-16,3.219801863444994e-15
1.1917812889926638e+16,1.6615936542058012e-15,5.796757111139261e-16,2.453617697813965e-15
1.3171220213014006e+16,1.2553797285912222e-15,4.3822991743632097e-16,1.853055693420925e-15
1.455644953499321e+16,8.903856824627995e-16,3.104692714374651e-16,1.3152224475768243e-15
1.6087364696510274e+16,6.487688582145749e-16,2.2652576835651813e-16,9.57501791214727e-16
1.7779287611060016e+16,4.423574655934782e-16,1.5439599218877461e-16,6.53021388389667e-16
1.9649151611846216e+16,3.156846334275572e-16,1.1051836350667193e-16,4.651264231167535e-16
2.1715670926271664e+16,2.138125832654995e-16,7.500806585022217e-17,3.1461644636326176e-16
2.3999527974216296e+16,1.444125736153417e-16,5.082550272070047e-17,2.1205867447133644e-16
2.6523580364646804e+16,9.121187453164781e-17,3.216505637892996e-17,1.3376797559464088e-16
2.9313089662249916e+16,5.354571306185921e-17,1.8897881826642973e-17,7.848678140837466e-17
3.239597421366256e+16,2.8748122510923903e-17,1.0138727183977281e-17,4.2158378695887383e-17
3.580308856366845e+16,1.369557040327736e-17,4.8138740369544786e-18,2.0127577237071198e-17
3.956853225785317e+16,6.0835842922775405e-18,2.1288360732772744e-18,8.96609527010631e-18
4.372999112231745e+16,2.3846680021171297e-18,8.274653311720397e-19,3.53331752284956e-18
4.832911443609147e+16,9.863418062236397e-19,3.4107648769344033e-19,1.4645979699160852e-18
5.341193177111833e+16,4.100461954952364e-19,1.4182744213869395e-19,6.087787282520905e-19
5.902931367168067e+16,2.0213802221682565e-19,7.074415604980821e-20,2.978885587565509e-19
6.523748078390668e+16,1.0125643394037383e-19,3.5862244470966655e-20,1.4808389186778547e-19
7.209856653089253e+16,4.9454813459223693e-20,1.768290536974354e-20,7.187783033019971e-20
7.968123896488464e+16,2.1507688942760804e-20,7.735976224243148e-21,3.11368748839512e-20
8.806138802022675e+16,8.171742581877573e-21,2.9499962994144357e-21,1.1801528545502687e-20
9.732288504532963e+16,2.5863678388605285e-21,9.354796515120594e-22,3.730376819755054e-21
1.0755842221531781e+17,6.894099882684293e-22,2.4961363268121103e-22,9.936646957466983e-22
1.1887044022647109e+17,1.4592502502209297e-22,5.2834031630093627e-23,2.1032776292697747e-22
1.3137215355714517e+17,2.5122087236361474e-23,9.08940101641206e-24,3.622656413296905e-23
1.4518868355632528e+17,3.3080502803244755e-24,1.194381764667804e-24,4.776971527339239e-24
1.6045831070013837e+17,3.40176429667689e-25,1.2234668972985482e-25,4.925016038969236e-25
1.7733385854933965e+17,2.637599350835818e-26,9.413848851800205e-27,3.8380662178584745e-26
1.9598422325887104e+17,1.5979820204673303e-27,5.624704135235838e-28,2.3463360056081442e-27
2.1659606394734874e+17,8.056516610418554e-29,2.774481907811822e-29,1.1993622297170175e-28
2.3937567084426342e+17,3.7629251978910405e-30,1.2664891214755359e-30,5.680459260210323e-30
2.645510299119281e+17,1.6898200641253843e-31,5.622917888056278e-32,2.5682010721633317e-31
2.923741046056241e+17,6.526220776439619e-33,2.1694064872249466e-33,9.92451743940809e-33
3.231233576085435e+17,1.9276847750633547e-34,6.420584966430569e-35,2.928060434963063e-34
3.5710653777991904e+17,3.995428797846458e-36,1.3325111223768716e-36,6.064195082586719e-36
3.9466376020904966e+17,5.524429170974486e-38,1.842304812251721e-38,8.385264788717473e-38
4.361709102014217e+17,4.821299225573733e-40,1.6059427767754934e-40,7.323050097732989e-40
4.8204340526519674e+17,2.5342371655101963e-42,8.423562971108739e-43,3.85400936039669e-42
5.327403527492497e+17,7.542790323478433e-45,2.500498530342083e-45,1.1488710761864628e-44
5.887691447438314e+17,1.2017221123314624e-47,3.97106198473506e-48,1.833800840108907e-47
6.50690536231155e+17,9.529808219791505e-51,3.1382964613917166e-51,1.4571196674712973e-50
7.191242573097194e+17,3.511716200788347e-54,1.1520796369311916e-54,5.38117349916805e-54
7.94755215661452e+17,5.514197202721819e-58,1.8020253512421045e-58,8.468418056955553e-58
8.783403513379775e+17,3.390363315288849e-62,1.1033611350682337e-62,5.219059229366995e-62
9.707162124710774e+17,7.355022917332515e-67,2.38360905739892e-67,1.1348979356658718e-66
1.0728073277275776e+18,5.072372231365339e-72,1.6365364148982343e-72,7.846369405504878e-72
1.1856354593029665e+18,9.805574934898022e-78,3.149542513813227e-78,1.5205828403560094e-77
1.3103298290609034e+18,4.672649690254771e-84,1.4937589952058895e-84,7.26501616757954e-84
1.4481384201651471e+18,4.712449815425083e-91,1.4993690511699652e-91,7.345937643089788e-91
1.6004404673145303e+18,8.587295126410403e-99,2.718584973753153e-99,1.34227270055503e-98
1.7687602605874204e+18,2.34956306983233e-107,7.401212146172203e-108,3.6825085823626134e-107
1.954782401049124e+18,7.94828454487122e-117,2.4905412394170577e-117,1.249280460853231e-116
2.1603686608055747e+18,2.654549335152748e-127,8.274073000253714e-128,4.184035210972514e-127
2.3875766162443576e+18,6.896185610407034e-139,2.1375292719368796e-139,1.090164112896736e-138
2.6386802409507195e+18,1.0598580659766195e-151,3.2668023526045794e-152,1.6803488357921973e-151
2.9161926643995817e+18,7.194034450122084e-166,2.2043001607232603e-166,1.144087465014559e-165
3.222891324199959e+18,1.545516196572159e-181,4.7073983312566055e-182,2.465416994209454e-181
3.5618457636241014e+18,7.345634792958654e-199,2.223178698327621e-199,1.1755772103820722e-198
3.9364483526283095e+18,5.147530565675124e-218,1.5479362313712568e-218,8.264693308907666e-218
4.3504482398315904e+18,3.430369282562328e-239,1.0244809272975255e-239,5.526630926357321e-239
4.80798887525527e+18,1.3259229477738406e-262,3.932298620602346e-263,2.143560918793772e-262
5.313649479363375e+18,1.7379409013568626e-288,5.115593148168106e-289,2.8199919178908187e-288
5.872490873440197e+18,4.223353e-317,1.230531e-317,6.8868537e-317
6.490106129990773e+18,0.0,0.0,0.0
7.172676550090275e+18,0.0,0.0,0.0
7.927033527922949e+18,0.0,0.0,0.0
8.760726921671058e+18,0.0,0.0,0.0
9.682100615033227e+18,0.0,0.0,0.0
1.0700376025617078e+19,0.0,0.0,0.0
1.182574439598585e+19,0.0,0.0,0.0
1.3069468791039646e+19,0.0,0.0,0.0
1.4443996822554331e+19,0.0,0.0,0.0
1.5963085229064071e+19,0.0,0.0,0.0
1.7641937557924575e+19,0.0,0.0,0.0
1.949735632752471e+19,0.0,0.0,0.0
2.1547911192538554e+19,0.0,0.0,0.0
2.381412479527039e+19,0.0,0.0,0.0
2.6318678163156963e+19,0.0,0.0,0.0
2.9086637708113723e+19,0.0,0.0,0.0
3.2145706099609727e+19,0.0,0.0,0.0
3.5526499522295677e+19,0.0,0.0,0.0
3.926285409306962e+19,0.0,0.0,0.0
4.339216450430786e+19,0.0,0.0,0.0
4.795575828251552e+19,0.0,0.0,0.0
5.299930940810141e+19,0.0,0.0,0.0
5.857329543592682e+19,0.0,0.0,0.0
6.473350269163948e+19,0.0,0.0,0.0
7.1541584599971455e+19,0.0,0.0,0.0
7.906567873293718e+19,0.0,0.0,0.0
8.738108875355421e+19,0.0,0.0,0.0
9.657103808021529e+19,0.0,0.0,0.0
1.0672750281463e+20,0.0,0.0,0.0
1.1795213226956566e+20,0.0,0.0,0.0
1.3035726630933629e+20,0.0,0.0,0.0
1.4406705968492056e+20,0.0,0.0,0.0
1.59218724616443e+20,0.0,0.0,0.0
1.7596390405918828e+20,0.0,0.0,0.0
1.944701893972679e+20,0.0,0.0,0.0
2.1492279775452394e+20,0.0,0.0,0.0
2.3752642570975343e+20,0.0,0.0,0.0
2.625072979688757e+20,0.0,0.0,0.0
2.9011543149782034e+20,0.0,0.0,0.0
3.206271377763581e+20,0.0,0.0,0.0
