Energy,Neutrino Flux Best Fit,Neutrino Flux Min,Neutrino Flux Max
12032085561.497326,1.0654984150323761e-20,1.065460723704931e-28,1.0654984150323761e-20
13297511046.364744,1.3014022634780172e-20,1.3013562295471316e-28,1.3014022634780172e-20
14696022491.231989,1.58953571719365e-20,1.5894794944976525e-28,1.58953571719365e-20
16241616668.695225,1.9414624979743837e-20,1.9413938319686207e-28,1.9414624979743837e-20
17949762404.774643,2.3713065467557636e-20,2.3712226842427934e-28,2.3713065467557636e-20
19837555396.12454,2.896318855516027e-20,2.8962164344512175e-28,2.896318855516027e-20
21923889309.51147,3.537569794442351e-20,3.5374447094296772e-28,3.537569794442351e-20
24229644875.98167,4.3207947182579167e-20,4.320641956391182e-28,4.3207947182579167e-20
26777898872.235577,5.277426786610362e-20,5.277240227148038e-28,5.277426786610362e-20
29594155080.765438,6.445858446106585e-20,6.445630616050199e-28,6.445858446106585e-20
32706599540.282627,7.872982197356511e-20,7.8727039732805525e-28,7.872982197356511e-20
36146382641.06671,9.616072477379051e-20,9.615732721771908e-28,9.616072477379051e-20
39947930888.54135,1.174508417551214e-19,1.174466929335812e-27,1.174508417551214e-19
44149291455.31176,1.4345460018629166e-19,1.4344953416902369e-27,1.4345460018629166e-19
48792512970.05625,1.7521559479564681e-19,1.7520940908612653e-27,1.7521559479564681e-19
53924066354.335,2.1400846800132144e-19,2.1400091551478353e-27,2.1400846800132144e-19
59595309919.19256,2.6139006172274985e-19,2.6138084102151796e-27,2.6139006172274985e-19
65863003376.3968,3.1926189272367715e-19,3.1925063615251144e-27,3.1926189272367715e-19
72789875908.71193,3.899464601841666e-19,3.899327194201576e-27,3.899464601841666e-19
80445253984.64363,4.762804443315624e-19,4.762636728445107e-27,4.762804443315624e-19
88905755201.03723,5.817285380773617e-19,5.817080698222775e-27,5.817285380773617e-19
98256055097.73912,7.105224755836491e-19,7.104974991857485e-27,7.105224755836491e-19
108589734618.85976,8.678308388433359e-19,8.678003663074218e-27,8.678308388433359e-19
120010216702.3162,1.0599664496932467e-18,1.0599292785892694e-26,1.0599664496932467e-18
132631801371.3562,1.2946396527937432e-18,1.294594321066399e-26,1.2946396527937432e-18
146580809687.60864,1.5812675632940043e-18,1.581212297874624e-26,1.5812675632940043e-18
161996848014.72623,1.9313518597925407e-18,1.9312845153240882e-26,1.9313518597925407e-18
179034205245.79617,2.35894019200125e-18,2.3588581776229478e-26,2.35894019200125e-18
197863396978.4405,2.8811897121741397e-18,2.8810899044276007e-26,2.8811897121741397e-18
218672872092.2294,3.519055408563579e-18,3.51893404540214e-26,3.519055408563579e-18
241670898808.40778,4.298130701359949e-18,4.2979832562405223e-26,4.298130701359949e-18
267087649108.25497,5.249674228032966e-18,5.249495256237667e-26,5.249674228032966e-18
295177502371.6366,6.411863737798752e-18,6.411646693558038e-26,6.411863737798752e-18
326221591291.33826,7.831327596220058e-18,7.831064612963851e-26,7.831327596220058e-18
360530615543.54706,9.565015244335395e-18,9.564696870201359e-26,9.565015244335395e-18
398447951374.6401,1.168248174884364e-17,1.1682096626770628e-25,1.168248174884364e-17
440353088226.072,1.4268676313254987e-17,1.4268210836999412e-25,1.4268676313254987e-17
486665426792.25476,1.7427343976392145e-17,1.74267820262026e-25,1.7427343976392145e-17
537848476523.67316,2.1285209518733945e-17,2.1284531504587713e-25,2.1285209518733945e-17
594414494585.2562,2.599702448194701e-17,2.5996207207347758e-25,2.599702448194701e-17
656929612698.2595,3.1751817766446964e-17,3.175083306799244e-25,3.1751817766446964e-17
726019503176.8154,3.8780422157975096e-17,3.8779236697129986e-25,3.8780422157975096e-17
802375640866.7465,4.7364796695870106e-17,4.736337007001343e-25,4.7364796695870106e-17
886762223658.238,5.784925264442391e-17,5.784753706400946e-25,5.784925264442391e-17
980023820835.1781,7.06543620812743e-17,7.065229958567249e-25,7.06543620812743e-17
1083093825808.4175,8.629368802876341e-17,8.629121020302621e-25,8.629368802876341e-17
1197003797830.755,1.0539453814154935e-16,1.0539156202308956e-24,1.0539453814154935e-16
1322893786188.652,1.2872290788044015e-16,1.2871933564869923e-24,1.2872290788044015e-16
1462023740198.6826,1.572144079365794e-16,1.5721012154499626e-24,1.572144079365794e-16
1615786119203.7695,1.9201149687522578e-16,1.9200635732711164e-24,1.9201149687522578e-16
1785719828774.3174,2.3450957538209895e-16,2.3450341480347496e-24,2.3450957538209895e-16
1973525622592.4019,2.864124943290592e-16,2.864051154760999e-24,2.864124943290592e-16
2181083124166.258,3.498012386700356e-16,3.497924040476563e-24,3.498012386700356e-16
2410469638734.1265,4.272167248306646e-16,4.272061563011926e-24,4.272167248306646e-16
2663980943633.268,5.217621252584492e-16,5.217494883493616e-24,5.217621252584492e-16
2944154265211.2075,6.372263098068585e-16,6.372112139711131e-24,6.372263098068585e-16
3253793672239.8057,7.782362451147896e-16,7.782182212664694e-24,7.782362451147896e-16
3595998139977.998,9.504409814271047e-16,9.504194835728381e-24,9.504409814271047e-16
3974192565757.8076,1.1607385351279048e-15,1.1607129084646499e-23,1.1607385351279048e-15
4392162046507.968,1.41755001471331e-15,1.4175194996433205e-23,1.41755001471331e-15
4854089761276.225,1.7311572176578205e-15,1.731120904250199e-23,1.7311572176578205e-15
5364598837891.249,2.1141107845583237e-15,2.114067621050627e-23,2.1141107845583237e-15
5928798622779.822,2.5817321653334344e-15,2.5816808938620797e-23,2.5817321653334344e-15
6552335817023.215,3.152720755359508e-15,3.152659930220764e-23,3.152720755359508e-15
7241450990439.492,3.849899601968502e-15,3.849827498846646e-23,3.849899601968502e-15
8003041039303.818,4.701117551645221e-15,4.7010321993569406e-23,4.701117551645221e-15
8844728212804.49,5.740355399802367e-15,5.740254451729542e-23,5.740355399802367e-15
9774936399074.719,7.00906398445031e-15,7.008944774845989e-23,7.00906398445031e-15
10802975434296.477,8.557801864235561e-15,8.557661225652869e-23,8.557801864235561e-15
11939134278670.102,1.0448215171300529e-14,1.0448049531119615e-22,1.0448215171300529e-14
13194783991786.266,1.2755455370049561e-14,1.2755260490630646e-22,1.2755455370049561e-14
14582491538012.295,1.5571098450117764e-14,1.5570869590282903e-22,1.5571098450117764e-14
16116145560895.404,1.9006699734430554e-14,1.9006431279526695e-22,1.9006699734430554e-14
17811095385375.56,2.3198076510384764e-14,2.319776223784467e-22,2.3198076510384764e-14
19684304638988.426,2.8310503599270754e-14,2.8310136151434436e-22,2.8310503599270754e-14
21754521029551.562,3.454495059217042e-14,3.4544521905485367e-22,3.454495059217042e-14
24042463978525.496,4.2145609455533495e-14,4.214511000755e-22,4.2145609455533495e-14
26571031987947.7,5.1408881720363594e-14,5.140830121220474e-22,5.1408881720363594e-14
29365531816337.574,6.269414427663424e-14,6.269347055939282e-22,6.269414427663424e-14
32453931757241.43,7.643649414469046e-14,7.643571428722205e-22,7.643649414469046e-14
35867141555314.914,9.316184795395902e-14,9.316094669204659e-22,9.316184795395902e-14
39639321761436.58,1.1350458021119744e-13,1.1350354160748754e-21,1.1350458021119744e-13
43808225622982.92,1.3822806869752654e-13,1.3822687393608634e-21,1.3822806869752654e-13
48415576931017.13,1.6824818826940727e-13,1.6824681819871047e-21,1.6824818826940727e-13
53507487606014.33,2.0465993210433615e-13,2.0465836405572864e-21,2.0465993210433615e-13
59134919201460.17,2.487667606505135e-13,2.487649722786192e-21,2.487667606505135e-13
65354192944206.95,3.0211226314970055e-13,3.0211022787531633e-21,3.0211226314970055e-13
72227553416242.33,3.6651267305439915e-13,3.665103658201615e-21,3.6651267305439915e-13
79823791519386.38,4.4408844562226307e-13,4.440858363445067e-21,4.4408844562226307e-13
88218932957759.3,5.372911349066935e-13,5.372881968642819e-21,5.372911349066935e-13
97496999128580.83,6.489204821013773e-13,6.489171825999893e-21,6.489204821013773e-13
107750848036554.23,7.821198968685241e-13,7.821162095813344e-21,7.821198968685241e-13
119083103647988.42,9.397627972243099e-13,9.3975868884396e-21,9.397627972243099e-13
131607182985944.81,1.1209670613660625e-12,1.1209625089500649e-20,1.1209670613660625e-12
145448431245926.3,1.320802514463015e-12,1.3207974862982069e-20,1.320802514463015e-12
160745376292723.06,1.535651684168626e-12,1.5356461657881015e-20,1.535651684168626e-12
177651115093844.44,1.762890537650266e-12,1.7628845045884932e-20,1.762890537650266e-12
196334845965426.53,2.0015922323812026e-12,2.0015856817710006e-20,2.0015922323812026e-12
216983561965851.22,2.2516658438237973e-12,2.2516587584155088e-20,2.2516658438237973e-12
239803922385123.88,2.5158556887252145e-12,2.515848085607485e-20,2.5158556887252145e-12
265024321060508.62,2.7991792576060107e-12,2.799171135940793e-20,2.7991792576060107e-12
292897172218817.9,3.1068011430099114e-12,3.106792546177692e-20,3.1068011430099114e-12
323701436722832.0,3.446101347607002e-12,3.446092293049687e-20,3.446101347607002e-12
357745414005378.25,3.827162063709288e-12,3.827152622130727e-20,3.827162063709288e-12
395369827633676.4,4.232276062289131e-12,4.2322662673962534e-20,4.232276062289131e-12
436951235385320.5,4.4945798547205254e-12,4.494569810293411e-20,4.4945798547205254e-12
482905797965083.75,4.804742741228765e-12,4.804732498331341e-20,4.804742741228765e-12
533693444081124.7,5.102220153709864e-12,5.102209846325361e-20,5.102220153709864e-12
589822473566090.5,5.317212776059763e-12,5.3172024627256577e-20,5.317212776059763e-12
651854644612685.5,5.4239931831921476e-12,5.423983005573616e-20,5.4239931831921476e-12
720410796038476.4,5.414884913515587e-12,5.4148749384324885e-20,5.414884913515587e-12
796177060849452.1,5.292240466460412e-12,5.2922308445027163e-20,5.292240466460412e-12
879911733289759.6,5.122067691455101e-12,5.1220584744819894e-20,5.122067691455101e-12
972452858105377.6,4.9227994626748074e-12,4.922790784932441e-20,4.9227994626748074e-12
1074726617977607.2,4.739860238751665e-12,4.7398521185031807e-20,4.739860238751665e-12
1187756603070647.8,4.5836439122150515e-12,4.5836364586918865e-20,4.5836439122150515e-12
1312674055466002.2,4.4143679839496705e-12,4.414361205863797e-20,4.4143679839496705e-12
1450729191013444.8,4.258221310928094e-12,4.258215289893631e-20,4.258221310928094e-12
1603303711911469.5,4.1186937465195316e-12,4.118688439038592e-20,4.1186937465195316e-12
1771924635247291.8,3.5065198389934994e-12,3.506515235263912e-20,3.5065198389934994e-12
1958279575897106.0,3.0259973316762784e-12,3.025993380421717e-20,3.0259973316762784e-12
2164233636742997.5,2.5774044924109718e-12,2.5774011864686985e-20,2.5774044924109718e-12
2391848075249455.5,2.133747686139509e-12,2.1337449575645296e-20,2.133747686139509e-12
2643400933220910.5,1.6882880826502542e-12,1.688285880696526e-20,1.6882880826502542e-12
2921409836209776.5,1.265446459131891e-12,1.2654447017124468e-20,1.265446459131891e-12
3228657190759185.0,8.936678814189962e-13,8.936665103718928e-21,8.936678814189962e-13
3568218031662874.0,6.107945280599793e-13,6.107934787752383e-21,6.107945280599793e-13
3943490797946938.0,4.2133069472251265e-13,4.213299139493041e-21,4.2133069472251265e-13
4358231345589884.0,2.958787325633803e-13,2.9587816579850993e-21,2.958787325633803e-13
4816590537391635.0,2.1278355797235835e-13,2.127831580139228e-21,2.1278355797235835e-13
5323155786203589.0,1.5160848616459698e-13,1.5160821067470094e-21,1.5160848616459698e-13
5882996967298324.0,1.0782630518709377e-13,1.078261211230165e-21,1.0782630518709377e-13
6501717159385337.0,7.822859295275879e-14,7.822847431029288e-22,7.822859295275879e-14
7185508722106082.0,5.665471627770194e-14,5.665464279671525e-22,5.665471627770194e-14
7941215271250550.0,3.955704275115682e-14,3.9556999060235413e-22,3.955704275115682e-14
8776400171964320.0,2.5966239397559738e-14,2.5966214521086453e-22,2.5966239397559738e-14
9699422235449094.0,1.573402874053691e-14,1.5734015223759795e-22,1.573402874053691e-14
1.0719519376754622e+16,8.664542831336104e-15,8.664535824852947e-23,8.664542831336104e-15
1.1846901070937594e+16,4.407294942118337e-15,4.407291515537456e-23,4.407294942118337e-15
1.3092850532919472e+16,2.08721400415831e-15,2.0872124282763777e-23,2.08721400415831e-15
1.4469837643693838e+16,8.896818352123059e-16,8.896811520521315e-24,8.896818352123059e-16
1.5991643753086706e+16,3.279506583778271e-16,3.2795037700776572e-24,3.279506583778271e-16
1.7673499608137524e+16,1.0444017609788548e-16,1.0444006787748222e-24,1.0444017609788548e-16
1.953223778753494e+16,3.036683183149625e-17,3.036679322591353e-25,3.036683183149625e-17
2.1586461167721836e+16,7.999287851009804e-18,7.999275070669342e-26,7.999287851009804e-18
2.3856729106735452e+16,1.9145659087134496e-18,1.914562039313651e-26,1.9145659087134496e-18
2.6365763209172884e+16,4.040453677245935e-19,4.0404430408235946e-27,4.040453677245935e-19
2.913867473164672e+16,6.876494834398324e-20,6.876467934121655e-28,6.876494834398324e-20
3.2203215904681668e+16,9.934778919375613e-21,9.934717595506591e-29,9.934778919375613e-21
3.559005768636532e+16,1.1940873867784624e-21,1.1940748357165582e-29,1.1940873867784624e-21
3.933309672760561e+16,1.1749097282556564e-22,1.1748868514745661e-30,1.1749097282556564e-22
4.34697946212062e+16,9.247568087846288e-24,9.247202541049897e-32,9.247568087846288e-24
4.8041552830078296e+16,5.719342766240797e-25,5.718837286110621e-33,5.719342766240797e-25
5.3094127046997336e+16,2.693123347803271e-26,2.6925281964811773e-34,2.693123347803271e-26
5.86780851329551e+16,9.537561362537677e-28,9.531667291239838e-36,9.537561362537677e-28
6.484931321730897e+16,2.4669133254284262e-29,2.4620832657252776e-37,2.4669133254284262e-29
7.166957502494869e+16,4.977860310368785e-31,4.945519121662836e-39,4.977860310368785e-31
7.920713002841402e+16,9.82480429060178e-33,9.652100411743803e-41,9.82480429060178e-33
8.753741661163949e+16,2.7127765082856344e-34,2.6409531693783807e-42,2.7127765082856344e-34
9.674380708265602e+16,8.231263935623401e-36,8.008551045493342e-44,8.231263935623401e-36
1.0691844209167226e+17,1.9496159765603085e-37,1.9000750324255604e-45,1.9496159765603085e-37
1.1816315280567157e+17,3.103416677782231e-39,3.0287988350683236e-47,3.103416677782231e-39
1.305904800689568e+17,3.146403733062289e-41,3.073722594970113e-49,3.146403733062289e-41
1.4432480074974877e+17,1.9065634933034543e-43,1.863629383805462e-51,1.9065634933034543e-43
1.59503572545685e+17,6.595041355092227e-46,6.448935882648853e-54,6.595041355092227e-46
1.7627870970665997e+17,1.2142260972963756e-48,1.1875370575925984e-56,1.2142260972963756e-48
1.9481810344370026e+17,1.1253393280128304e-51,1.1006860918130077e-59,1.1253393280128304e-51
2.1530730224063024e+17,4.840641591809137e-55,4.734359892408721e-63,4.840641591809137e-55
2.3795136888566858e+17,9.02949921260118e-59,8.830532772693418e-67,9.02949921260118e-59
2.629769328087318e+17,6.619451711831654e-63,6.4722401644365485e-71,6.619451711831654e-63
2.906344582649434e+17,1.9193936177633494e-67,1.8800180709714278e-75,1.9193936177633494e-67
3.2120075106508646e+17,1.5989073024295697e-72,1.5649029937241331e-80,1.5989073024295697e-72
3.549817289411884e+17,3.744026229506513e-78,3.659178124273966e-86,3.744026229506513e-78
3.9231548327401446e+17,2.26365737194428e-84,2.2103139578560052e-92,2.26365737194428e-84
4.3357566282523456e+17,3.0378904671887697e-91,2.964274742647276e-99,3.0378904671887697e-91
4.791752133398209e+17,7.598316243568333e-99,7.409448495427484e-107,7.598316243568333e-99
5.2957051044586496e+17,2.9737737074732073e-107,2.8978007637645807e-115,2.9737737074732073e-107
5.852659272152445e+17,1.4894493583587266e-116,1.4502842451797132e-124,1.4894493583587266e-116
6.46818882098868e+17,7.728931297167825e-127,7.519132703993441e-135,7.728931297167825e-127
7.14845417757871e+17,3.25811526814341e-138,3.1667045461566036e-146,3.25811526814341e-138
7.900263666256344e+17,8.608990753110828e-151,8.35860921555995e-159,8.608990753110828e-151
8.731141649076219e+17,1.060807140683836e-164,1.0287966218623959e-172,1.060807140683836e-164
9.649403832158068e+17,4.435189462190677e-180,4.295935767203771e-188,4.435189462190677e-180
1.0664240492068819e+18,4.389396997379089e-197,4.245924655441548e-205,4.389396997379089e-197
1.178580845519921e+18,6.964982014870506e-216,6.727335869769915e-224,6.964982014870506e-216
1.3025332750696215e+18,1.142664184754292e-236,1.1019588575864607e-244,1.142664184754292e-236
1.4395218954327757e+18,1.2030401228062006e-259,1.1581813000013353e-267,1.2030401228062006e-259
1.5909177347654336e+18,4.7610574392990224e-285,4.575263498667196e-293,4.7610574392990224e-285
1.7582360135135462e+18,3.9517296412e-313,0.0,3.9517296412e-313
1.9431513092484355e+18,0.0,0.0,0.0
2.1475143164019855e+18,0.0,0.0,0.0
2.373370368638583e+18,0.0,0.0,0.0
2.622979909241844e+18,0.0,0.0,0.0
2.898841114390782e+18,0.0,0.0,0.0
3.203714895746698e+18,0.0,0.0,0.0
3.540652532584999e+18,0.0,0.0,0.0
3.9130262100238356e+18,0.0,0.0,0.0
4.32456276898612e+18,0.0,0.0,0.0
4.779381005676146e+18,0.0,0.0,0.0
5.282032893876426e+18,0.0,0.0,0.0
5.837549142631166e+18,0.0,0.0,0.0
6.451489545273404e+18,0.0,0.0,0.0
7.129998623705261e+18,0.0,0.0,0.0
7.879867124838432e+18,0.0,0.0,0.0
8.708599984671815e+18,0.0,0.0,0.0
9.6244914402133e+18,0.0,0.0,0.0
1.063670804099176e+19,0.0,0.0,0.0
1.1755380390965504e+19,0.0,0.0,0.0
